##TITLE=<SNM>
##JCAMP-DX=4.24
##DATA TYPE=INFRARED SPECTRUM
##DATE=2/5/2025
##SAMPLING PROCEDURE=Instrument type and / or accessory
##ORIGIN=Admin
##XUNITS=1/CM
##YUNITS=ABSORBANCE
##RESOLUTION=4
##FIRSTX=4497.3318
##LASTX=599.83466
##DELTAX=-1.4281778
##MAXY=1.7905309
##MINY=0.23199971
##XFACTOR=1
##YFACTOR=1.6675619e-09
##NPOINTS=2730
##FIRSTY=0.25408816
##XYDATA=(X++(Y..Y))
4497+152371056+152080783+152119136+151765042+151045166+150724528+151155149
4487+151754140+151956502+152186155+153196215+154746557+155775026+155777063
4477+155175445+154380650+153354702+152225169+151520681+151487260+151742273
4467+151873077+151984936+152408230+153126586+153736318+153893090+153687332
4457+153553133+153753154+153998819+153770186+153033600+152334973+152097064
4447+152130699+151924262+151162816+149947516+148671095+147741734+147472943
4437+148090395+149431522+150663228+150878922+150063200+149000096+148365558
4427+148323086+148679530+149081225+149271766+149191861+148757344+147968170
4417+147351495+147595320+148545000+149264161+149262678+148914723+148639202
4407+148551041+148821030+149490624+150014857+149753956+148791676+147714033
4397+146860610+146240942+145928730+146177014+147124041+148414822+149238283
4387+148984226+147822309+146504408+145754775+145783245+146080328+145823734
4377+144813146+143740508+143250106+143183381+143146914+143264609+143791335
4367+144433648+144688169+144536678+144292487+144100857+143990257+144026340
4357+144153096+144272086+144508530+144962474+145349300+145334600+144993839
4347+144538895+143928010+143172971+142685304+142826669+143354790+143783650
4337+144031764+144231759+144193415+143652588+142847007+142302374+142239867
4327+142532446+142936375+143177117+143145726+143034912+142946428+142504110
4317+141339700+139881710+139125099+139563065+140699291+141698825+142243397
4307+142569423+142904072+143196106+143364137+143499221+143712101+143957230
4297+144088418+143981759+143635752+143295581+143359177+143919601+144532595
4287+144681404+144339713+143853869+143454809+143088634+142642831+142272349
4277+142390401+143135208+143993519+144333842+144192709+144098864+144252401
4267+144365511+144260550+144091251+143922050+143603601+143219295+143168003
4257+143603949+144263526+144925855+145508868+145754177+145435549+144818338
4247+144387699+144259281+144276251+144425292+144771621+145176113+145367261
4237+145272907+145175032+145414684+145888635+146030501+145514435+144765616
4227+144516501+145016858+145792869+146128126+145827433+145429955+145512702
4217+146037275+146672429+147304733+147828913+147898309+147280714+146184368
4207+145185416+144999066+145951240+147488697+148664857+149127674+149140006
4197+148882303+148309664+147492852+146738412+146461524+146902547+147755478
4187+148273974+148060299+147569683+147506667+147960441+148538763+149061254
4177+149573486+149937115+149955558+149709017+149463012+149477175+149879121
4167+150415775+150578319+150255501+149843708+149592591+149461278+149596836
4157+150183477+150822108+150826254+150194236+149642748+149663810+150159100
4147+150897992+151646194+151968387+151577316+150727995+149810707+148952566
4137+148324677+148245478+148712691+149329322+149801575+150164247+150515231
4127+150730658+150495662+149689983+148735004+148308681+148643921+149361625
4117+150021791+150498718+150718416+150486065+149859685+149298475+149126030
4107+149199733+149317857+149532435+149872517+150182780+150393578+150618816
4097+150889431+151041591+150941223+150632917+150219543+149817132+149689188
4087+150089990+150839944+151418186+151583411+151546291+151562447+151740003
4077+152133451+152590075+152626105+151894684+150683280+149620462+149031399
4067+148834639+148856488+148940494+148926027+148816991+148812371+148963540
4057+149032114+148843540+148546421+148417235+148600832+149076766+149710697
4047+150303486+150655632+150650038+150379138+150195719+150436363+151010816
4037+151482971+151635632+151681330+151870038+152208459+152571167+152797978
4027+152750778+152483416+152184993+151884175+151523844+151294835+151480773
4017+152023843+152579191+152882815+152809648+152302321+151530171+150952000
4007+150946835+151410304+151934859+152333972+152694643+152970494+152907085
3997+152499447+152204759+152425011+152954839+153230136+153048719+152803536
3987+152983737+153606301+154198590+154294044+153903027+153478589+153471512
3977+153977230+154805927+155741570+156544764+156865723+156561474+156027572
3967+155788036+155913621+156202983+156561349+156878162+156992881+156984767
3957+157033915+157035023+156886955+157032896+158089780+159857783+161209391
3947+161439562+161286079+161760522+162462687+162098191+160553068+159179102
3937+159143662+160651881+163259947+165961483+167248002+166359006+164546985
3927+163838958+164653858+165530005+165472440+165515529+166941394+169079504
3917+169776236+167885060+164575812+161836191+160615708+160821841+162562447
3907+166591428+173012657+179876105+184208925+184963472+183062503+179131226
3897+174026524+170101038+169583435+172236842+174990082+175159524+174332185
3887+175513260+178256974+179820827+180128937+180810210+180585508+177757654
3878+174974765+175740161+179715455+184382424+188416267+190863184+190158981
3868+187349321+185595973+185575438+185032564+182591724+179855445+179313948
3858+182667250+190778436+202011644+208219126+202214847+190580291+181382894
3848+177025625+177376824+181256683+186797333+192456937+197525896+200798436
3838+200358057+196653752+192776681+190329174+188520996+186754244+185742807
3828+185879008+186916770+189878662+196289025+203914544+206863854+204459437
3818+201670651+199385635+194844858+188847263+185229744+186198520+191221710
3808+197134539+200568283+202589815+206236483+210208972+210514722+207920703
3798+205872631+204483993+202657478+201343811+201991038+204557732+208343139
3788+213105882+218598886+224064152+229342354+235638980+243828980+252824640
3778+261195663+269655956+279988838+293033335+308323120+323752126+336013928
3768+343183484+345430791+344103774+342434870+343784334+347920153+351403080
3758+352843904+355543474+363406813+377349386+394205669+407426114+414027061
3748+418815701+426555404+436187157+442665968+446000845+451755741+463532181
3738+481093328+500466996+515775010+524667943+530366865+537086588+546405943
3728+557404709+567730424+575341950+580123727+582425900+581895287+579185458
3718+576069296+573874140+573583508+575297914+576013965+571810519+563960477
3708+557071472+553785528+554284795+556906337+558570129+557294333+554365968
3698+552694920+554412399+559799029+567300143+574649561+579718180+580929781
3688+579033119+576723118+575434740+575407933+576844539+579663421+583824547
3678+589381638+594059974+594268108+592297279+592401149+592407440+587072996
3668+577404998+568576296+562648758+559305553+558400847+560313737+564692148
3658+569025164+570066196+568899669+570626513+577600301+586023457+587785079
3648+579651304+567522075+557722434+552708860+552345455+554728766+556927818
3638+557138849+556294120+556700275+559863332+566151380+574401929+579769044
3628+577125448+569946420+564980634+564732431+569069272+577072190+585843523
3618+591264289+592923756+593719444+595004426+595902448+595706824+594777705
3608+593820777+593518065+594479853+597026405+600784951+604618522+607826438
3598+611054298+614903454+618364506+619937581+620290513+621986332+626095057
3588+629746908+628637570+623118045+617687165+615435676+615834789+616247913
3578+615041424+613113558+612318192+613713407+617741709+624470511+632363696
3568+637480820+636398004+630372921+623543823+618545726+615510451+613568288
3558+612446654+612276729+612367732+611459416+609689465+608950788+610242061
3548+611972122+611819354+609524687+606660411+604522801+603731938+604599149
3538+606408490+607260402+606112890+604247933+603692477+604951009+606638893
3528+606814894+604632033+600789598+596526889+592745038+590076958+588954288
3518+589012371+588916435+587811065+586735576+587139550+588561716+589099264
3508+587719347+585130582+582526054+580465507+578928176+577803647+577139852
3498+576999201+577350668+577916382+577939544+576692057+574552624+572776132
3488+571835540+570920075+569467634+567992210+566944852+566087935+565193773
3478+564387755+563812284+563304510+562544494+561572340+560872195+560659878
3468+560572449+560220482+559379900+557749099+555453431+553427520+552249662
3458+551239083+549712332+548269506+547756085+547810523+547472746+546717162
3448+546326914+546474249+546482434+545837405+544738004+543673310+542792766
3438+541842952+540640573+539441626+538663738+538363063+538203361+537775868
3428+536958912+536170873+536023860+536492065+536837777+536447386+535164727
3418+533112044+530770625+528755008+527204666+525899739+524846661+524168677
3408+523745973+523459881+523510173+524100943+524933733+525223327+524348896
3398+522585951+520915546+519986534+519674171+519641036+519756953+519916441
3388+519900678+519525013+518798238+517926524+517200071+516855574+516943218
3378+517259656+517446201+517296364+516834021+516065713+515132590+514447243
3368+514152037+513862120+513218521+512164800+510773803+509626005+509748534
3358+511182710+512573778+512828666+512054102+510627504+508727876+506893836
3348+505852697+505827677+506517278+507402110+507964357+508109619+508227859
3338+508446645+508403753+508049105+507908883+508210594+508362612+507553627
3328+505545588+502821391+500314693+498972843+499023491+499639782+499822539
3318+499532373+499499274+500128361+501117708+501942599+502272512+502072134
3308+501561572+500947140+500113707+498795233+497097377+495577416+494693585
3298+494490525+494967059+496257224+498102629+499681066+500403945+500335710
3288+499624198+498475828+497686645+497920480+498729929+499460921+500355155
3278+501657436+502673519+502695180+501943099+500998897+500154704+499522972
3268+499110813+498795018+498481011+498176047+497962800+497981208+498166467
3258+498098912+497405737+496111354+494572986+493395056+493106998+493536672
3248+493899862+493722288+493125013+492243540+491168337+490309884+490078944
3238+490248012+490100605+489223422+487831495+486340665+484939839+483687312
3228+482746898+482185259+481719591+481060265+480310436+479605859+478637922
3218+477120821+475517114+474644506+474679177+475014773+474949148+474203072
3208+472862616+471231672+469747241+468695700+468026723+467536714+467129595
3198+466795464+466383304+465605202+464444036+463323582+462494295+461557777
3188+460168460+458800910+458130289+458106305+458253676+458373738+458420956
3178+458104160+457112168+455612618+454199924+453235133+452398554+451232384
3168+449934391+448990474+448282501+447315172+446048706+444848221+443885396
3158+442980333+441831570+440372838+438971654+437972370+437110628+435890163
3148+434432862+433394224+433068243+432988713+432494415+431518115+430614803
3138+430207719+430104170+429789591+428929314+427633001+426433732+425786881
3128+425469299+424760754+423338445+421630366+420186432+419149225+418465379
3118+418166526+418153945+418082958+417788395+417491259+417331735+417109410
3108+416700789+416277799+415921758+415368232+414261682+412627414+411067099
3098+410248928+410152564+410194884+410113246+410149204+410367847+410437833
3088+410111244+409473078+408754775+408170618+407861257+407816327+407829624
3078+407593930+406918377+405847427+404581282+403396883+402557016+402069616
3068+401659851+401181388+400760436+400367149+399700888+398671652+397557095
3058+396567927+395662649+394830824+394168317+393641063+393109949+392606251
3048+392270225+391994035+391448158+390537233+389557930+388802490+388187736
3038+387387472+386281494+385151354+384345765+383869588+383477803+383010992
3028+382390269+381548579+380672503+380170985+380080232+379829491+378924785
3018+377609206+376602381+376337557+376535540+376482676+375782673+374729738
3008+373828392+373258997+372967544+372818636+372455696+371507418+370150985
2998+369049332+368571869+368392722+367967266+367204891+366491485+366084687
2988+365726072+365005624+363920377+362839884+362051631+361530596+361139133
2978+360915235+360958234+361041088+360695698+359845143+358962813+358380442
2968+357812405+356856872+355708859+355007499+355045637+355426056+355522314
2958+355044315+354092963+352928830+351857452+351161060+350907459+350807913
2948+350429853+349627660+348631057+347681028+346852099+346284848+346160103
2938+346275912+346075927+345325740+344407738+343730361+343216154+342651655
2928+342148671+341852786+341525017+340831699+339777942+338575135+337435200
2918+336651451+336446032+336642300+336805577+336656919+336141425+335261061
2908+334076625+332838896+331985983+331836146+332196727+332478208+332295379
2898+331721123+330961715+330134787+329365692+328788219+328421883+328195232
2888+328040999+327887337+327623871+327167104+326598316+326157026+325934558
2878+325616940+324820394+323708197+322908684+322734113+322847241+322785119
2868+322420498+321813429+321020100+320209150+319659199+319468507+319424078
2858+319259693+318929529+318549253+318167011+317696626+317053813+316298944
2848+315635865+315255339+315152469+315094671+314780199+314091956+313261025
2838+312707965+312611743+312708679+312610063+312187788+311576287+310997562
2828+310624828+310401145+310040921+309411548+308757440+308341063+308088249
2818+307778566+307356935+306901669+306476749+306127034+305856955+305555816
2808+305097368+304537981+304082250+303847629+303731713+303485404+302905607
2798+302021775+301087295+300354194+299874658+299498922+299047426+298509950
2788+298004697+297520425+296920879+296234192+295618240+295031438+294302268
2778+293484080+292808079+292360266+292029173+291662193+291129346+290345632
2768+289363791+288431295+287834949+287590069+287372033+286883973+286191816
2758+285564748+285117364+284750831+284353505+283929729+283558782+283297354
2748+283108199+282846234+282366769+281694844+280998058+280349616+279656244
2738+278872351+278120967+277540116+277148456+276909188+276790895+276672030
2728+276302834+275537582+274569824+273765468+273287594+273015800+272767704
2718+272473659+272158454+271781806+271166462+270258218+269391025+268991537
2708+269040452+269101448+268865880+268459976+268203605+268176208+268102844
2698+267698941+267009358+266305352+265777437+265412728+265043425+264502017
2688+263844531+263353146+263212495+263268809+263203184+262882100+262431069
2678+261981772+261506901+260969121+260454967+260047365+259724600+259465745
2668+259296017+259189197+259075783+258958758+258895510+258850616+258650505
2658+258135423+257339431+256479154+255772557+255307997+255066031+254971132
2648+254876501+254593233+254077971+253558456+253310717+253346514+253461519
2638+253477497+253295919+252892678+252390070+251974640+251716374+251604819
2628+251632770+251678969+251502288+251022734+250459058+250092329+250000897
2618+250034156+249973749+249729656+249408625+249178151+249060697+248883481
2608+248492196+248015555+247771605+247842234+247934578+247784097+247510712
2598+247422176+247596032+247788243+247718168+247378157+247030158+246899658
2588+246942854+246951021+246822273+246674223+246696241+246909470+247116586
2578+247120285+246924571+246666574+246452863+246337036+246338180+246385379
2568+246336482+246146737+245969431+246014825+246338430+246812890+247260650
2558+247555714+247666072+247672559+247664088+247569940+247232466+246661230
2548+246047531+245541473+245176281+244942607+244781493+244589836+244333375
2538+244057346+243773256+243476780+243252936+243185631+243187972+243085942
2528+242842171+242564336+242350571+242247362+242269952+242357273+242404937
2518+242396127+242369390+242260694+241979053+241638398+241478839+241530220
2508+241558869+241406476+241206366+241159398+241232941+241244039+241164188
2498+241144064+241242681+241317117+241216124+240954838+240673196+240494085
2488+240420346+240342514+240159418+239877776+239581534+239351255+239226850
2478+239189587+239164835+239073653+238869360+238527241+238063182+237559519
2468+237113081+236771444+236548368+236437045+236377460+236278236+236088027
2458+235813927+235509928+235269373+235160230+235145272+235116587+234993022
2448+234754022+234431919+234119627+233939086+233933439+233966234+233780796
2438+233254132+232589712+232167795+232187811+232511398+232846190+233021674
2428+233051341+232969720+232741140+232400218+232139951+232097881+232157376
2418+232130979+232049251+232086228+232259906+232388244+232344994+232226343
2408+232212081+232344797+232507681+232590767+232635339+232803638+233177534
2398+233600487+233836967+233916050+234156944+234835410+236057341+238004884
2388+241068020+245660070+252062086+260429392+270785132+283015319+296937482
2378+312300023+328722236+345798056+363208400+380450714+396516921+410323668
2368+421566492+430608691+437410231+441214171+441537579+438865567+433809029
2358+426026005+414867822+400676510+384906331+370073636+359384694+355194581
2348+358177455+367436081+380149038+391945209+399698494+403279930+404038051
2338+403224634+401733912+400280721+399187610+397970684+395711010+392124963
2328+387855821+383531383+379027297+373902167+368130257+361947438+355323937
2318+348211141+341037225+334396352+328374201+322503030+316353310+309979156
2308+303717344+297729042+291953343+286409566+281265921+276614697+272374542
2298+268411275+264669333+261214733+258153259+255473866+253022177+250662904
2288+248411290+246379964+244653316+243248736+242158164+241338152+240649463
2278+239933912+239199738+238595743+238168786+237805202+237417277+237015626
2268+236603753+236160997+235722620+235359090+235088868+234872977+234664324
2258+234427898+234149884+233852426+233569909+233292646+232963197+232563584
2248+232177893+231906349+231741588+231606460+231485700+231436982+231491044
2238+231600366+231679127+231688188+231680199+231732474+231854163+232007378
2228+232177785+232373499+232612481+232941858+233395480+233922519+234433527
2218+234913189+235408309+235924839+236441692+237005904+237680493+238415971
2208+239134882+239914646+240904118+242090090+243296543+244382058+245338485
2198+246232182+247130990+248101876+249200437+250375704+251452908+252312989
2188+252992814+253552326+254011881+254432029+254872247+255296667+255627277
2178+255821115+255877715+255841024+255751790+255595376+255351712+255019600
2168+254578685+254040101+253473190+252892499+252249651+251553598+250868805
2158+250239986+249689624+249223456+248841107+248572261+248476272+248627664
2148+249046168+249636848+250507937+252346427+255921536+261197933+267476187
2138+274236140+281315443+288594643+296021821+303693396+311707752+320105565
2128+328852092+337797497+346826185+355956634+365154853+374202556+382777443
2118+390590634+397478102+403244365+407516832+410156245+411611009+412499488
2108+413228943+414152593+415566359+417479642+419635302+421657388+423179886
2098+423926963+423626109+422111296+419644988+416676448+413243705+408981175
2088+403504292+396587336+388221263+378518702+367601752+355803473+343688970
2078+331739459+320405418+310233722+301482619+293981774+287564924+282193145
2068+277750753+274082174+270996484+268215472+265644918+263437448+261626249
2058+260124768+258968892+258144305+257504941+257045440+256865971+257012984
2048+257647004+259018182+261242398+264455514+268920657+274750329+281908269
2038+290430523+300236991+310947629+322058237+332989413+343124257+352122419
2028+359950730+366665699+372464739+377541186+381731478+384748631+386507430
2018+386843991+385468864+382415182+378025905+372584122+366286996+359341302
2008+351927903+344182374+336193146+328060479+320046052+312503190+305564930
1998+299141468+293331955+288499279+284688834+281273784+277566584+273589592
1988+269865521+266764336+264346371+262485346+260956056+259609113+258463567
1978+257552748+256837144+256268821+255784370+255368833+255203108+255429097
1968+255699711+255392996+254430349+253436553+252937232+252846033+252863690
1958+252951709+253164848+253365423+253395197+253330984+253394965+253729793
1948+254387457+255505123+257197332+258964281+259616119+258564238+256752235
1938+255517133+255242015+255500191+255828156+256084849+256381878+256824884
1928+257442426+258444944+260044666+261822284+263108857+264099616+265329910
1918+266213849+265718603+264336810+263667493+264464611+266139020+267609797
1908+268259597+268286191+268258722+268439066+268710735+269021490+269584130
1898+270591813+271810330+272666639+273072078+273722290+274881383+275519406
1888+274679807+272991977+271661386+271024060+270785972+270699687+270612222
1878+270430681+270209053+270149397+270780896+272953964+276841490+280663087
1868+281531996+278848153+275051183+272418900+271332134+271115313+271132292
1858+271085021+270951429+270852169+270878798+271174773+272046863+273795135
1848+276652478+280583754+284262627+285048379+282283719+278722639+276821205
1838+276625706+276963054+277347154+278701318+282044702+286444255+289177907
1828+289165504+288076057+286960821+285221771+282943993+281405195+281228068
1818+281775892+282312654+283026203+284608500+286993241+288943536+289324348
1808+288508751+287929222+288787444+291413829+295022806+297907903+298775436
1798+298254937+298458926+301060166+305591988+308792612+307517567+303349221
1788+300383289+300366168+302266512+304540018+306676520+308500051+309610532
1778+310425486+312540434+317296977+323970590+329037494+329295492+325947711
1768+322003192+319173265+318642258+320938390+324430825+326464707+326943170
1758+327594919+328662365+329891695+332693349+338409713+345427967+349862138
1748+350168389+348529688+347483223+348138868+350430139+353210275+354964392
1738+356296520+360018321+366853389+371937128+370220613+364651083+359569918
1728+355985479+354149545+354241835+355710325+358533425+364173835+373540013
1718+383746273+388231414+384606085+377658890+372094006+369829757+371377883
1708+376265426+382462828+387427720+391513748+397612319+405966453+411905251
1698+412500346+409603864+404132736+397733347+394187440+395011079+398809443
1688+404650232+413774319+425519769+432281777+428660022+421314714+417140435
1678+417868675+422345059+427552793+431232988+434699687+439294776+442192652
1668+440392998+437222684+437636023+441873068+445992481+447067827+447194466
1658+450461966+459557530+475156854+492297513+498251823+494054918+493289398
1648+498957151+504397182+502860172+497612299+495148136+497684894+505064408
1638+516426401+528620469+534913664+532947481+529624864+530784493+536825338
1628+545133507+553541507+562090801+570679270+577724046+583420251+590792688
1618+601562446+612602496+618737168+620667679+622567165+625790522+629110601
1608+631304042+632583734+634049078+636417448+639536291+643030870+647098347
1598+652294964+658698786+665613097+672164682+678042358+683414476+688374257
1588+692874088+696925052+700554456+703865885+707325650+711851932+718480580
1578+727328763+735906795+740620088+743250244+749106473+759638750+771207449
1568+779949759+787485079+797219774+809879295+825767677+847167363+873099122
1558+890340828+891852639+888532274+886163547+884337836+882450145+880203446
1548+878092501+878026805+881282402+886999232+892897496+894124716+884854974
1538+870203391+860307779+856459124+853984524+849080003+843634682+841671143
1528+843902473+848006408+851921118+855402186+857589765+856838220+854422883
1518+852661510+850587095+846587459+842200720+840585968+843905547+852715841
1508+863902082+867165115+856317436+842474373+834763337+833121563+834599417
1498+836010217+835144078+832824248+832305680+835387778+840501542+843652196
1488+842139670+837577645+833506521+831934232+832291740+832695857+832641884
1478+833609391+836756114+841396418+845250292+845343797+841035837+835856448
1468+833411443+834126816+835612033+835606243+835488074+838454649+845244787
1458+851763060+850602823+841716967+833028058+828555248+827713987+828438867
1448+828561110+827107704+824800384+822653124+821001842+820389053+821900006
1438+825318094+827512536+825684823+822006951+819833670+819254337+818461759
1428+817027440+816247944+816664929+817596621+818982186+821420685+823640433
1418+822493993+817737451+812562423+808987063+806716488+804745157+802993793
1408+802489379+803642324+805018810+805141697+804783117+805433293+806903069
1398+808020628+808260754+807393257+805325633+803348298+803264801+804912580
1388+805796805+803797523+800380794+799135344+801755992+807181512+813416909
1378+819298159+824653335+829209999+832153055+833434391+834467952+836409759
1368+838993949+841613596+844261124+846708845+848044654+847909615+847037829
1358+846044514+844848391+843260804+841476698+840047527+839564845+840272568
1348+841740700+842925886+843095740+842911732+843887103+846492667+849447018
1338+851265366+851916185+852381281+853437718+855285662+857526642+859324187
1328+860386272+861774124+864814902+869394371+874285595+878865635+883316069
1318+887408067+890481301+892597178+894746797+898020267+902794466+908206903
1308+912544388+914979313+916650039+919150017+922503838+925444749+927139210
1298+927847290+928316175+929054137+929735982+929296907+927080161+923587370
1288+919844158+916672701+914589422+913573017+912907614+911798562+910045053
1278+908026184+906504436+906290046+907454286+909075687+910294115+911231526
1268+912316558+913361343+914094158+915015557+916802593+919234730+921575720
1258+923637339+925641839+927448749+928802002+930006989+931579564+933444307
1248+934821007+934745160+932688545+928944404+924609636+921062085+919075885
1238+918368234+918037677+917105842+914870366+911584601+908580495+906972606
1228+906545184+906416007+906093099+905386305+904304490+903443427+903394029
1218+903622931+903061471+901866992+901488896+902977760+905915597+909186492
1208+912244428+915025565+917248959+918417560+918712802+919386140+921423024
1198+924291590+926899942+929269671+931994333+934633854+936104488+936262761
1188+936031285+936445411+938176687+941193088+944691027+947988302+951117296
1178+953953478+955606118+955641862+955300368+956453742+959401301+962589415
1168+964721448+966038457+967233508+968517989+970205516+972905586+976448562
1158+979526800+981114959+981540451+981573406+981455381+981302327+981496057
1148+982157886+982949892+984004185+986206204+989858627+993714931+996235498
1138+997450065+998654481+1000699300+1003278486+1005535408+1006847769+1007282983
1128+1007594596+1008432926+1009609533+1010669474+1011813983+1013246157
1120+1014462798+1015598514+1017869662+1021483124+1024842807+1026512247
1111+1026379281+1024794553+1022362059+1020159825+1019089305+1019677644
1103+1022622415+1028191767+1034576858+1038437309+1038090811+1035346203
1094+1033426844+1034087815+1037635580+1043726931+1050620583+1055272396
1085+1055700247+1052829250+1049600675+1048834189+1051137077+1054380165
1077+1056367222+1057021830+1056686269+1055400573+1054826674+1056824883
1068+1059856726+1060489959+1058657600+1057290122+1057587651+1058680905
1060+1059897330+1060838960+1061705599+1063783445+1066852675+1067777362
1051+1065319561+1063259730+1064776473+1067759204+1068744369+1068092549
1043+1067769212+1067458958+1066118573+1064697694+1065140271+1068137943
1034+1072140224+1073741823+1070890057+1066232881+1064131659+1065297615
1025+1067164145+1067936135+1067784010+1067156996+1066638857+1067102023
1017+1068058164+1068180693+1068088188+1069568187+1071673485+1070892344
1008+1066183412+1061008098+1058950125+1059438168+1059274892+1057386415
1000+1055826207+1056409900+1058582538+1060394667+1060126733+1057433096
991+1054222106+1053209062+1054713938+1056048604+1054794361+1051995066
983+1050503915+1050747329+1050057121+1046169505+1040132770+1035256058
974+1033738099+1035046243+1036899834+1037028654+1034570067+1030196696
965+1025414347+1021737905+1019401203+1017124694+1014170701+1011185825
957+1008427350+1004911825+1000023174+994903620+991209806+989387884+988446469
947+986950529+984675378+982886554+982306078+981974807+980755593+978579738
937+975906689+973109253+970606273+968894012+968236902+968332480+968279008
927+967452330+966515419+966913245+969282545+972593902+974782625+974785556
917+973703884+973114329+973188032+973244364+972890359+971786240+969402786
907+965820278+962333133+960712733+961392005+962369806+961165176+958044975
897+955463430+954664132+954905687+955196854+955362276+955987002+957366061
887+958582201+958432292+957324170+956730183+956776364+956402986+955335825
877+954387905+954505216+955852749+957230665+957372995+956819256+956853999
867+957030000+955850390+953358633+950572420+947658031+944818346+943196159
857+943319832+944127851+944409868+944310644+944974260+946898480+948944085
847+949421691+948118266+946311785+944926435+943981517+943599990+944117200
837+945091785+945604419+945590551+945506911+945221748+944586799+944389280
827+945712651+948252804+949977290+949336050+947217313+945992809+947147470
817+950218487+953630356+956058132+957129939+957078325+956182805+954932066
807+954612518+956259154+958996040+960257074+958582130+955709703+954313773
797+954442593+954421647+954822833+957829012+962825894+966299099+966185291
787+963820996+961583161+961000183+962207745+963563713+963006685+960421638
777+957874407+957422965+958791230+959630132+958943497+958616729+959792765
767+960150844+957350048+953331468+952041124+954442307+958340145+961777678
757+964313328+965783033+966127673+965907063+964881079+961739003+957337323
747+955136233+957046871+961487797+965851089+968776773+969950521+969841288
737+969411865+968867133+967281047+964003503+960341858+959001759+961520324
727+966974724+973146927+978435548+982184121+983852275+983195593+981235415
717+979513575+978270127+976559796+973702454+970319466+967803118+966710150
707+966474671+966590052+966832822+966782995+965863527+963533474+960155491
697+957249323+955684611+954730186+953564659+952209763+950783736+948903195
687+946149151+942255531+937098446+931468259+927349954+926173418+926697205
677+926288227+924616356+923012255+920727597+916225477+911181127+910222842
667+914476114+917888984+916675203+912926058+910934497+913101345+916812315
657+917419456+913514612+907215519+900999352+895740827+891341506+888232171
647+887750491+890875124+896764452+902626900+905060896+902474561+896540554
637+890032862+884220668+879226431+875201917+873155740+873895918+875666656
627+875844659+875771313+879233723+885289330+888813004+888532203+887078583
617+884735590+880832248+878128531+878675622+878828676+873504955+864171089
607+858210845+859046030+861190931+857612641+850837158+850257754
##END=
