##TITLE=<SNM>
##JCAMP-DX=4.24
##DATA TYPE=INFRARED SPECTRUM
##DATE=2/5/2025
##SAMPLING PROCEDURE=Instrument type and / or accessory
##ORIGIN=Admin
##XUNITS=1/CM
##YUNITS=ABSORBANCE
##RESOLUTION=4
##FIRSTX=4497.3318
##LASTX=599.83466
##DELTAX=-1.4281778
##MAXY=1.7999164
##MINY=0.25022027
##XFACTOR=1
##YFACTOR=1.6763028e-09
##NPOINTS=2730
##FIRSTY=0.27197388
##XYDATA=(X++(Y..Y))
4497+162246274+162655218+162958432+162591179+161502115+160324514+159653407
4487+159466252+159546913+159978667+160716532+161225907+161073918+160490442
4477+160051399+160086174+160514745+161028049+161290070+161076851+160472361
4467+159946132+159895356+160077996+159958932+159568034+159415725+159700236
4457+160174711+160543920+160596473+160279463+159886680+159777591+159815637
4447+159534966+158813084+157997952+157520277+157619766+158220185+158906084
4437+159275310+159202648+158596149+157362990+155915456+155219921+155843986
4427+157239677+158404940+158992008+159286848+159368185+158876198+157681849
4417+156399745+155908807+156420795+157297511+157817802+157810335+157470319
4407+157006564+156715084+156951202+157702845+158482793+158809368+158615599
4397+158185623+157848808+157699325+157571390+157354118+157170714+157100506
4387+156952535+156503465+155839683+155341580+155293614+155486458+155297489
4377+154319062+152813872+151431799+150609912+150386488+150685702+151511465
4367+152713707+153765080+154128315+153825759+153325380+152940011+152655002
4357+152432414+152343094+152401781+152491066+152492239+152414920+152359362
4347+152392394+152495208+152587692+152598306+152533183+152422173+152218822
4337+151853578+151317038+150625183+149902128+149512261+149786318+150614018
4327+151554222+152182376+152189469+151555075+150759661+150336192+150172345
4317+149795900+149297282+149269138+149837093+150438650+150659532+150706147
4307+150918655+151355848+151998172+152866105+153746715+154159552+153775179
4297+152698791+151363707+150333330+150085212+150670537+151553884+152054601
4287+152052290+152009692+152224724+152450068+152369424+152025728+151643577
4277+151400082+151406980+151630137+151871019+151958205+151874895+151697962
4267+151525901+151477436+151635506+151900745+152022635+151947983+151989816
4257+152395701+152969434+153415322+153729950+154063352+154537330+155159936
4247+155615282+155431842+154674065+154009554+153849262+153959774+154066765
4237+154238151+154564584+154989831+155437371+155665862+155260830+154308768
4227+153693379+154097238+155096164+155788588+155875436+155628740+155328193
4217+155183280+155412961+156035941+156767406+157239731+157226450+156750819
4207+156149618+155895366+156122790+156443249+156473242+156333662+156307687
4197+156354587+156407710+156720435+157348660+157727611+157346118+156482220
4187+155801317+155579138+155641594+155732105+155695268+155539367+155448038
4177+155558568+155780445+156036475+156516799+157404307+158457796+159138130
4167+159160104+158753756+158290784+157808273+157190075+156690141+156744952
4157+157245491+157573346+157465839+157307307+157451669+157694898+157592387
4147+157062513+156481100+156241213+156366677+156579060+156663313+156650939
4137+156617319+156468353+156100229+155661613+155488076+155846777+156732667
4127+157749159+158329221+158275814+157877609+157447242+157124099+157072452
4117+157388715+157889432+158332457+158637147+158638658+158044195+156956322
4107+156018518+155706219+155867969+156256129+156963949+157946501+158653947
4097+158624399+158069316+157463581+156945886+156453152+156097846+156108087
4087+156541245+157205613+157782369+157983090+157758741+157433606+157445056
4077+157917611+158633893+159253549+159387990+158798505+157741141+156777771
4067+156199825+155982872+156110043+156512906+156888532+156932676+156689038
4057+156528924+156794323+157493840+158345346+159029005+159361411+159397982
4047+159429308+159659114+159866466+159632162+158896608+158074347+157589311
4037+157431508+157310205+157181435+157295218+157680711+157986912+157945079
4027+157699201+157663199+158205535+159329517+160551120+161250139+161244663
4017+160931422+160751307+160667321+160372427+159869417+159521045+159540940
4007+159749749+159861381+159795049+159711988+159821059+160085747+160245879
3997+160221274+160178498+160128523+159942167+159795938+160019966+160540222
3987+161046201+161497688+161846771+161677128+160836840+160021158+160088823
3977+161121369+162525612+163681452+164209103+163957838+163060783+161949443
3967+161226529+161444033+162773552+164676752+166068763+166207205+165425355
3957+164704077+164628500+165076557+165883990+167300145+169306158+170881662
3947+170986254+170129680+169635720+169641213+169209567+168188186+167488224
3937+167804897+169298886+171894900+174794555+176277433+175417304+173597095
3927+172903694+173643977+174306710+173914727+173567191+174794039+177136264
3917+178160365+176166459+172291274+168991050+167537649+167875122+170109786
3907+175039402+182719492+190880600+196006438+196710951+193987660+188748394
3897+182295597+177468617+176717613+179587524+182480583+182543822+181893196
3887+183728161+186979494+188383844+188488329+189772104+190421201+187572037
3878+183882977+183627427+186972312+191796696+196994964+200971682+201146481
3868+198793341+197792210+198272979+196918996+192789773+188911922+188273030
3858+192247810+201515725+214345352+221564870+214806974+201697974+191497820
3848+186749172+187105313+191170978+197014698+203184407+209021905+213138114
3838+213210917+209400891+204880610+201520739+198702208+196013923+194573874
3828+195075497+197014645+200805256+207683887+215454346+218265428+215750626
3818+212991583+210333308+204623958+197150651+192437010+192970013+198362156
3808+205329627+209952810+212984809+217510388+221891445+221706938+218345769
3798+215874543+213853596+210583844+207549214+207094278+209283624+212991849
3788+217896201+224017055+230506761+236770749+243877373+252708965+261822206
3778+269559099+277114223+286916456+300094082+316071500+332062358+343850639
3768+349848891+351747859+351238715+350290689+351597452+355721697+359849675
3758+361637705+363216090+368832493+380694413+396686515+410269546+417883802
3748+424626622+435411621+447766577+454293849+455329915+458777968+469215253
3738+486711284+507192128+522933162+528974474+528954526+530231314+537008447
3728+549433842+564646317+577978563+586218804+589021814+586997258+581757370
3718+576289063+573390937+574577196+579152200+582747994+579893177+570925969
3708+561116731+554647311+552725870+553668776+554422838+553998818+553936700
3698+555240689+557807493+561929213+568369157+576950889+584922744+587110294
3688+581804163+574488979+570252267+569624504+571436855+575702013+583942040
3678+596002263+605181960+602779786+593338708+587243776+584951083+580397307
3668+572347191+565237420+561490864+560120063+559658459+560335610+562865648
3658+565585348+565558253+564289607+567148016+576206250+587159505+591095297
3648+584104359+572572837+563334719+558577911+557154840+556597054+555686932
3638+555336658+556328064+557983003+560316161+565270488+573194803+578736394
3628+576082226+569501476+566199385+567711420+572597620+578836452+583359542
3618+584406488+584675941+587548359+592672970+597286411+599827969+600168536
3608+598319988+595521209+594154924+595405826+598571591+602352389+606112635
3598+609980690+613782111+616358728+617037871+617338400+619475744+623087930
3588+624599111+621867180+617883706+616435816+617789479+619397305+618943026
3578+616822465+615272953+615205821+615426703+615435805+617194251+622508489
3568+628785901+629782356+623786487+615790737+610320261+608087695+607567849
3558+607169608+606586825+606709356+607741510+608204607+607538692+607937004
3548+610788692+613039392+610436249+603983896+598716095+597443005+598744186
3538+599381371+597857247+595720827+595068495+595889582+596627465+596363915
3528+595475091+594578125+593926220+593627219+593725286+594158088+594612900
3518+594276245+592240595+588590932+584809778+582610494+582534046+583945952
3508+585933350+587356528+586676603+583538893+579789918+577322675+575965492
3498+574621643+573160384+572111340+571549998+571123951+570418034+569143664
3488+567734212+567292413+568127439+568836379+567703384+564818023+561820373
3478+559914329+559040155+558395147+557145347+555090069+552939853+551645784
3468+551600876+552604158+553993058+554687419+553853140+551838540+549981529
3458+549227859+549115534+548234390+545939351+543407748+542423241+543282587
3448+544331596+543763676+541618901+539579980+539060560+539891567+540705721
3438+540422579+539384450+538874809+539423563+540141392+539896332+538312650
3428+535562406+532236314+529280763+527167101+525486703+524011505+523360417
3418+524017692+525255616+525522402+524046707+521741142+520264913+520456780
3408+521841662+523236074+523546844+522343908+520043357+517596701+515896355
3398+515198011+514953520+514419984+513413040+512142865+510879446+510163715
3388+510397504+511056877+511206786+510683704+510067106+509907063+510483197
3378+511645633+512645928+512783606+512035091+510605194+508711168+507246744
3368+507448496+509359696+511430868+512098063+511311360+510126949+509390879
3358+509190159+509188986+509110369+508849237+508386495+507875325+507552181
3348+507326997+506930641+506509821+506425551+506520453+506207087+505244411
3338+503963178+502802520+501936702+501204615+500218293+498764715+497308007
3328+496621255+496684298+496591921+495772540+494703619+494158314+494314873
3318+494927808+495733961+496551990+497439604+498512010+499268240+498677600
3308+496457656+493768678+492087427+491758203+492145990+492810163+493760038
3298+494763391+495318830+495391118+495480793+495902537+496523544+497042679
3288+497142702+496689952+495984034+495512119+495432507+495550628+495636925
3278+495525311+495179802+494888055+495019474+495336218+495036684+493810849
3268+492247683+491006345+490212460+489742856+489543309+489489013+489327476
3258+488970198+488624119+488419736+488006206+487020134+486099984+486588931
3248+488763859+491033831+491497391+489928144+487663755+485971374+485088595
3238+484585105+484149956+483814047+483562373+483129535+482302403+481138332
3228+479767637+478252295+476721237+475306701+473975154+472853040+472461164
3218+473007749+473682874+473399803+472027082+470257293+468635137+467286844
3208+466313181+465906904+466018269+466083694+465371590+463847786+462477163
3198+462224137+462823454+463086151+462373087+461106432+459817377+458467127
3188+456992783+455842117+455453974+455560681+455393562+454431740+452733777
3178+450722448+448905510+447685933+447170674+447044481+446740040+445901210
3168+444682416+443517704+442538281+441385694+439766596+438009928+436788609
3158+436357051+436327219+436118569+435381362+434080181+432492481+431091349
3148+430165973+429636526+429351997+429277540+429243654+428888189+428067315
3138+427022111+425981529+424891950+423661848+422433205+421459079+420804151
3128+420299310+419757880+419094987+418291963+417451498+416853497+416713543
3118+416858652+416803859+416191528+415128972+414059127+413223639+412346905
3108+411125373+409882684+409310142+409631828+410399081+411058383+411381634
3098+411333560+410822248+409767692+408352444+406982211+405945150+405243002
3088+404733360+404284059+403845710+403483347+403256705+403067363+402730672
3078+402160761+401444639+400775239+400255961+399746391+399079231+398386719
3068+397872668+397347239+396441135+395200473+394050873+393306056+392989881
3058+392912011+392778743+392455563+392083670+391755904+391293625+390531812
3048+389585919+388717896+388102757+387692533+387215604+386420474+385363998
3038+384325337+383469546+382765727+382133804+381488725+380752264+379998238
3028+379478072+379304268+379175053+378668327+377785762+376907890+376245317
3018+375648454+374961097+374268158+373672397+373014340+371998329+370592894
3008+369183727+368279578+368090023+368323065+368375725+367857052+366929258
2998+366027953+365400227+365048957+364819506+364397300+363575573+362579260
2988+361768769+361095244+360248912+359277489+358611467+358439299+358448295
2978+358278260+357872090+357249803+356356500+355360614+354705792+354581591
2968+354633184+354419414+353907924+353316145+352728669+352097884+351407150
2958+350643025+349790897+348985526+348435421+348157506+348028575+347968732
2948+347830806+347409062+346768748+346175867+345642829+344975562+344162973
2938+343307431+342402927+341500627+340794817+340363686+340115745+340018176
2928+340081290+340103976+339683014+338605951+337156390+335897096+335158857
2918+334831482+334592218+334222209+333748765+333373708+333246164+333288584
2908+333253453+332904459+332153527+331132750+330136864+329415622+329009985
2898+328753440+328371662+327667558+326716545+325834549+325317369+325264851
2888+325564349+325885218+325827828+325295039+324570205+323908237+323321756
2878+322828222+322518875+322313710+321993659+321472710+320799328+320046226
2868+319355243+318854136+318476589+318109888+317808398+317592850+317261457
2858+316687777+316070220+315656405+315436875+315272209+315116255+314961190
2848+314710690+314270491+313707194+313176894+312713833+312216067+311632467
2838+311005913+310344514+309652713+309070463+308768583+308708455+308653413
2828+308386200+307853909+307190269+306626190+306311935+306217069+306187805
2818+306035122+305634250+305045423+304464987+304014548+303662177+303297680
2808+302784305+302059329+301266261+300645859+300265574+299975925+299606130
2798+299120881+298638868+298311777+298117741+297834599+297310895+296663309
2788+296095443+295623919+295116642+294524081+293923520+293357485+292753421
2778+292043752+291312376+290748741+290401507+290040086+289390936+288467817
2768+287526991+286787437+286357693+286276533+286385232+286274489+285634175
2758+284635888+283756399+283229103+282849476+282315336+281590022+280900853
2748+280476797+280300967+280114025+279696548+279088093+278473184+277958156
2738+277529140+277121815+276684550+276224031+275776650+275340523+274899187
2728+274468287+274038312+273544813+272969373+272400493+271929894+271539067
2718+271152311+270774960+270455905+270099462+269497763+268611073+267645321
2708+266848662+266388463+266334131+266563067+266752622+266613309+266117499
2698+265472243+264905656+264486650+264149283+263856683+263620885+263376199
2688+263018191+262592055+262271667+262123109+262000899+261712690+261238446
2678+260740503+260350280+260018531+259625873+259154829+258678540+258264032
2668+257954062+257784668+257768062+257870663+257998527+257989424+257682316
2658+257091373+256493497+256211510+256260597+256314875+256069637+255511887
2648+254804707+254092105+253479277+253027842+252702387+252432526+252214613
2638+252052188+251868802+251608559+251359285+251258889+251312811+251377437
2628+251296811+251016887+250589791+250119369+249733058+249563095+249659526
2618+249882878+249958420+249717111+249266459+248861124+248615797+248419824
2608+248149625+247877221+247783528+247898075+248031059+247992319+247802497
2598+247636587+247616480+247706653+247765002+247648072+247327080+246957089
2588+246764014+246783250+246790753+246605286+246341167+246188182+246084035
2578+245848415+245526303+245354757+245451917+245700409+245885395+245872914
2568+245706756+245551051+245533539+245687252+246007907+246458950+246922154
2558+247226382+247261121+247072757+246835804+246685059+246573391+246335620
2548+245891457+245354597+244921741+244661143+244472209+244268413+244071000
2538+243867435+243557162+243131614+242722724+242403687+242136510+241947256
2528+241943807+242128403+242354600+242474072+242420096+242206984+241940998
2518+241765008+241735531+241789365+241805703+241688222+241472621+241329574
2508+241354038+241428708+241391835+241222583+240997399+240794065+240657117
2498+240561823+240440306+240281295+240149377+240117340+240203602+240324923
2488+240335573+240172063+239904122+239628820+239396418+239209369+239029308
2478+238841477+238693114+238579829+238387109+238038595+237586485+237133628
2468+236798804+236689892+236753184+236752917+236542223+236228004+235967085
2458+235754684+235513375+235239372+234959590+234665354+234371207+234137720
2448+233987580+233889567+233837778+233855023+233914332+233925159+233804994
2438+233547168+233220807+232911175+232669741+232520223+232465483+232461696
2428+232431686+232344624+232271714+232333121+232561523+232819188+232894854
2418+232711574+232416307+232234699+232242575+232311378+232289243+232187248
2408+232150481+232294684+232599338+232925060+233137603+233252133+233408869
2398+233663529+233887895+233994727+234218702+235042847+236861989+239867853
2388+244281143+250531975+259146153+270524602+284795007+301757732+320970003
2378+341911135+364013104+386574188+408850458+430261053+450284454+468189072
2368+483100272+494348261+501817443+505940870+507078168+505142931+499884340
2358+490798229+477144937+458824193+437192219+415751223+399381396+391652717
2348+393660810+404495127+420875123+437075058+448053915+452662947+452872699
2338+451289052+449428023+447695249+446276374+445248060+444090211+441854018
2328+437987634+432748315+426763646+420304430+413038244+404569406+395138639
2318+385567670+376611734+368579041+361376360+354589875+347587097+339841101
2308+331318572+322563819+314313160+306919643+300206798+293911875+288026392
2298+282593980+277519967+272780084+268522286+264785882+261347518+257997389
2288+254827535+252111586+249945352+248145767+246537176+245163726+244094610
2278+243191794+242268978+241359691+240623835+240076556+239590720+239100706
2268+238647637+238262712+237920456+237586609+237241580+236868887+236454610
2258+235994749+235499241+235000338+234551108+234181207+233846222+233490686
2248+233171151+232992049+232910712+232777479+232551958+232295786+232031223
2238+231782322+231626564+231580090+231572321+231577708+231647845+231833222
2228+232137823+232490337+232774493+232962235+233141674+233366396+233588379
2218+233766592+233941107+234186914+234549615+235019450+235556791+236151058
2208+236827090+237574787+238335426+239096475+239903784+240725973+241445455
2198+242049252+242667912+243381599+244143234+244888673+245579425+246168377
2188+246623651+246973445+247302207+247693141+248161643+248664528+249139075
2178+249477473+249583825+249534151+249506132+249509990+249379762+249011976
2168+248458101+247848846+247330742+247002389+246852462+246760120+246575809
2158+246247065+245853145+245492950+245225791+245116221+245224618+245601471
2148+246312081+247374300+248835470+251039074+254450948+259077581+264460160
2138+270271470+276529503+283312520+290576306+298144676+305814099+313586691
2128+321658035+330090355+338712018+347366820+356086692+364961379+373821738
2118+382131493+389326671+395118443+399388472+402061201+403138620+402796630
2108+401555542+400103527+398709578+397207926+395582073+393960593+392115423
2098+389504564+385773333+381093507+376075496+371179019+366230416+360730712
2088+354419485+347384847+339921852+332305427+324552391+316565958+308454648
2078+300497727+293000348+286257119+280408456+275384543+271102246+267553068
2068+264721950+262517279+260663255+258813195+256950016+255326758+253982144
2058+252787884+251796727+251096873+250628317+250343202+250203533+250135566
2048+250261669+250876631+252124423+253979406+256361579+259146580+262402198
2038+266505322+271673046+277630176+283892867+290062647+295894029+301336557
2028+306387814+310942301+314953261+318474633+321477724+323910477+325712516
2018+326531114+325883689+323791325+320825178+317521167+314032578+310210605
2008+305870777+301059993+296082784+291269565+286770245+282536697+278448970
1998+274538921+271177805+268867191+267577887+266445728+264571276+262012864
1988+259476320+257392401+255801464+254672203+253900469+253288192+252725215
1978+252229850+251830773+251505212+251196451+250981205+251199153+252056046
1968+253048697+253289294+252589475+251682606+251228310+251187312+251278445
1958+251488909+251870846+252251540+252448971+252544655+252766159+253236688
1948+253990820+255210024+257088031+259105920+259924127+258865945+256964381
1938+255647840+255271698+255390796+255620620+255874748+256206301+256668776
1928+257373697+258668655+260758744+263033160+264659920+265887871+267368117
1918+268445465+267915129+266260741+265244250+265783013+267365450+268869734
1908+269558548+269577002+269571295+269873976+270297071+270652305+271150906
1898+272131023+273426728+274360051+274798222+275596002+277094098+278021803
1888+277163879+275236429+273648818+272748936+272194741+271819524+271577966
1878+271367610+271168649+271167494+271976171+274561767+279096573+283511232
1868+284430990+281124970+276490425+273308998+272080087+271930925+272024814
1858+272027356+271962606+271995923+272245873+272828780+273971677+275929439
1848+278999502+283249015+287249254+287972114+284624990+280419604+278239591
1838+278070463+278381393+278536547+279748123+283389110+288440847+291664588
1828+291736325+290620700+289494247+287506884+284715163+282731160+282367143
1818+282859752+283324112+284003574+285736010+288451888+290691067+291087815
1808+290034219+289175726+289914160+292660314+296521240+299527016+300232293
1798+299450816+299634861+302658645+307955780+311752401+310366275+305588737
1788+302114834+301897330+303760777+306062075+308295707+310141126+311030554
1778+311593425+313864926+319349092+327055725+332894325+333214696+329322711
1768+324564552+320947566+320012340+322511372+326554831+328883970+329189300
1758+329452601+330058247+330882712+333739520+340290189+348607695+353876598
1748+354041299+351738401+350127446+350539518+352773969+355396242+356746313
1738+357750840+361780147+369693937+375799714+373942099+367331338+361114232
1728+356717548+354630411+355006606+356946963+360242974+366695682+377604278
1718+389629156+394734176+390012428+381475035+374754723+371883941+373311990
1708+378576874+385506120+391163983+395799825+402709053+412282120+419127131
1698+419649218+415851530+408847898+400797782+396245286+396882507+400999533
1688+407485844+417792598+431140951+438539482+433624018+424376833+418920579
1678+419279992+424138635+429983920+434146495+438096972+443285658+446272143
1668+443574098+439241061+439041621+443224464+447352158+448187823+448123145
1658+451683310+461753467+479033843+498026938+504397901+499266036+497850539
1648+503296090+508001019+504870101+498237721+495253796+498012395+506346614
1638+519494247+533491946+539664570+535601377+530475770+531100723+537501305
1628+546539698+555853447+565506802+575075033+582363834+587819945+595568607
1618+607682130+619706368+624944443+624967057+625615407+628825512+633145926
1608+636667085+638828465+640340713+642028970+644175060+646892698+650581189
1598+655608196+661708248+667963685+673604978+678751813+683921191+689076702
1588+693813917+698145567+702400414+706559683+710333085+714157689+719643455
1578+727859090+736326328+740353466+741427933+745898968+756259058+769326972
1568+780337332+789302299+799231152+811534870+827416497+849874429+877568159
1558+894316315+892500266+887026377+885448205+885953544+885614258+883338881
1548+880547782+880362245+884645608+892333148+899997575+900809701+888220743
1538+870152633+859057077+856066930+855317739+851417825+845703639+842739448
1528+843374144+845381704+847957824+852387754+857473004+859051815+856713857
1518+853705860+850207457+845059912+840504180+840459378+846803068+858474224
1508+870252477+871170493+857720340+842987069+835464799+834785870+838091268
1498+841286794+840258480+835472408+832148023+833749662+838735209+841897454
1488+839485608+833391885+827836427+825217781+825415977+826801001+828406551
1478+831191605+836563730+844088204+850154193+849413180+841620605+833533830
1468+830458700+832256401+834888132+834761762+833732097+836434373+844453377
1458+853638870+855273933+847573237+838289393+832224613+829854583+829908772
1448+829758365+827329737+823559606+820822839+820081969+821037534+823339080
1438+826050246+826849928+824636847+821821357+820596482+820263240+819006790
1428+816881038+815769733+816454352+817865973+819385332+821637313+823704040
1418+822351870+817080656+811318967+807442093+805219270+803467153+801851789
1408+801252721+802086253+802990544+802758427+802725643+804705397+808014991
1398+810571056+811557129+810939358+808396164+805000949+803211212+803841641
1388+804689041+802948018+799427641+798017229+800808114+806417761+812582954
1378+818830924+825832850+832885053+837545180+838600092+837775875+837165500
1368+837385671+838779229+841890556+845733578+847542729+846098609+843456495
1358+841754656+840939045+840112197+839244459+838878504+838967042+838916408
1348+838604785+838695385+839971817+842760854+846641141+850238961+851895500
1338+851346284+850155331+849967091+851179449+853200592+855195636+856765913
1328+858284917+860414580+863284687+866523451+869924142+873405264+876607119
1318+879442166+882604696+886603957+890925367+894865532+898537382+902402949
1308+906364804+909903741+912880875+915722110+918662619+921197493+922648938
1298+923038574+922935458+922718559+922478263+922461694+922915901+923286550
1288+922263213+919270861+915547666+912767163+911161471+910029685+909095953
1278+908130788+906395596+903922806+902229785+902491486+904055861+905740633
1268+907635547+910378715+913415300+915564022+917030259+919119885+921902450
1258+923931202+924604229+925116110+926504690+928113938+928686196+928237891
1248+927894408+928091964+928020067+927016999+925438045+923836549+922291872
1238+920708012+918942384+916686279+913850876+910778164+907798470+905172997
1228+903315844+902329985+901742722+901303235+901321512+901801605+902260293
1218+902708669+903688697+905145476+906361746+907192576+908369164+910213658
1208+911934698+912774275+913184463+914133485+915875503+918260610+921555340
1198+925819859+929915409+932355842+933047288+933271582+934251895+936283989
1188+938785936+940903937+942372379+943800498+945815810+948215281+950497556
1178+952805930+955569365+958562428+960962753+962113171+962026056+961677666
1168+962750996+965997867+969940095+972400938+972935505+972401578+971345031
1158+970532407+971539102+974857585+978587536+980502576+980575611+980535502
1148+981837323+984651534+988034091+990728900+992143935+992622677+992874351
1138+993323367+993832547+993902381+993616003+994242806+996847940+1000605555
1128+1003658781+1005354575+1006372791+1007234058+1007981257+1008513620
1120+1008404104+1007370384+1006266618+1006492335+1008656489+1012504418
1111+1017191783+1021251918+1023432144+1023896805+1023901926+1024971486
1103+1028211032+1033104558+1037418642+1039326571+1038281545+1034640842
1094+1031101620+1031401723+1036249450+1042227897+1045273941+1044898172
1085+1043711344+1043477875+1043350438+1041956098+1039978619+1039755675
1077+1043081625+1050048065+1058881471+1066284410+1069191141+1067254268
1068+1063623593+1062031626+1062739285+1063369075+1063505259+1065438860
1060+1069599906+1072787325+1072448181+1069381869+1065450025+1062067112
1051+1060906098+1062890972+1066423439+1068518469+1067766932+1065237819
1043+1063132121+1063192782+1065403516+1067792178+1068159413+1065870808
1034+1061841395+1058266900+1057987207+1061920332+1067240401+1070291280
1025+1071058463+1071994897+1073469455+1073741823+1072455932+1070963383
1017+1069602324+1067613325+1065132285+1063417575+1063511161+1065008333
1008+1066727168+1067986605+1068347652+1067228169+1064611088+1061277528
1000+1057994532+1054937678+1051798902+1048660480+1046374223+1045343419
991+1044771873+1043573382+1041454883+1039017650+1037216037+1036824979
983+1037900585+1039783908+1041912007+1043710846+1043757497+1040751491
974+1035356253+1029593568+1024527021+1020232777+1017145132+1015506229
965+1014602863+1014040561+1014117436+1014041343+1012218183+1008876588
957+1005841353+1003775693+1001879143+999840079+997973255+995867130+992845550
947+989491154+987149001+985749113+983363580+978974043+974453584+972358269
937+972944465+974111240+973768255+971766099+969546903+968644390+969888181
927+972920784+975835551+976378509+974044605+970209547+966644297+964616256
917+964342537+964758129+964934493+965611005+967800689+970605654+972101119
907+971613346+969838970+967694088+965786871+964271991+962976358+961813495
897+960906217+960232053+959669609+959321788+959325059+959440407+958945522
887+957342603+955127673+952997441+950716517+948050438+946137602+946214193
877+947690457+949086859+949821827+949809168+948795219+947225724+946376476
867+946414593+946229553+945854851+946684330+948719482+949599310+947322724
857+943179740+940673526+941908784+945762829+949071499+949651437+948063950
847+946266888+945346952+944852138+943630108+941396333+939589031+939692503
837+941013595+941795427+942163231+943365918+944725270+944420047+942629030
827+941160660+941361558+943930566+948359074+952201955+953487348+953200188
817+953242643+953934018+954971577+956541499+958459526+959863822+960257938
807+959785810+958903706+958307128+958481429+958980226+958420342+956183651
797+954043321+954692382+958306061+961713366+961563243+957819994+953533004
787+951805492+953394473+956683941+959730483+961846919+963272336+964094276
777+964299655+964150172+963709974+962731724+960861984+957615540+953332319
767+950244886+950671146+953908559+956705773+956977786+955377356+953555476
757+952650972+953321723+955870463+959689805+963364287+965715827+966866103
747+967764562+968557702+968442496+966833675+964083609+961405938+960503781
737+962383050+966000427+968925434+970090573+970748950+971573308+971507741
727+970399707+969593554+969288615+968297352+967152054+968190111+971230466
717+972584129+970024223+965374620+960730778+955643182+949504941+944021664
707+942237119+945461233+951860037+958077641+961244153+960757446+958891475
697+957734443+956652153+954521778+952526735+952309693+953206588+953399522
687+951904341+948451168+943606569+938869923+935180222+931877100+928860071
677+928140251+930575351+933581499+933602264+929176317+920616844+910372030
667+903912210+903617298+906388627+908278635+906544581+901089821+894825494
657+891554018+893140509+898474659+905399283+911815368+915148430+914246628
647+911707416+910540144+909903884+907032213+901582004+895936088+891922177
637+888754101+884750146+880186521+876903666+876528893+879666319+884639350
627+887129066+883879919+876872803+870811579+867839494+867314030+867992248
617+868244917+865917129+860845036+857202698+859541722+867600123+876985306
607+882604624+882513171+880429021+882604624+890944710+897488089
##END=
