##TITLE=<SNM>
##JCAMP-DX=4.24
##DATA TYPE=INFRARED SPECTRUM
##DATE=2/5/2025
##SAMPLING PROCEDURE=Instrument type and / or accessory
##ORIGIN=Admin
##XUNITS=1/CM
##YUNITS=ABSORBANCE
##RESOLUTION=4
##FIRSTX=4497.3318
##LASTX=599.83466
##DELTAX=-1.4281778
##MAXY=1.8528751
##MINY=0.39521587
##XFACTOR=1
##YFACTOR=1.7256244e-09
##NPOINTS=2730
##FIRSTY=0.41069606
##XYDATA=(X++(Y..Y))
4497+237998520+239107923+239849723+239629128+238825654+237867489+236909394
4487+236337983+236568129+237515483+238789922+239976644+240534998+240101268
4477+239082535+238447397+238800181+239811556+240544808+240378338+239645328
4467+239222253+239558699+240351206+241038898+241338264+241350302+241361389
4457+241546390+241809109+242001001+242146556+242200492+241833805+240906123
4447+239959771+239687899+240043515+240400116+240419994+240227601+239924211
4437+239504228+239081361+238727368+238295434+237759843+237432067+237537399
4427+237850703+238035704+238114526+238290529+238480556+238376674+237965741
4417+237739084+238182002+239099892+239719953+239615605+239120686+238552401
4407+237769169+236855113+236381488+236573604+236883833+236678971+235910315
4397+235044806+234639935+234925726+235693657+236616677+237457541+237933117
4387+237797579+237181472+236518598+236074004+235786244+235514649+235176459
4377+234715787+234137261+233571653+233250837+233378863+233935006+234566155
4367+234814314+234594272+234283300+234124394+233803371+233039171+232277181
4357+232157186+232533457+232731826+232541989+232288027+232203367+232266801
4347+232401286+232491455+232405587+232158291+231962927+232063390+232400077
4337+232441457+231671368+230334928+229292241+229027744+229231795+229442477
4327+229703865+230341646+231233199+231735873+231514241+231025608+230842662
4317+230926372+231013881+231226187+231713559+232179499+232319597+232286006
4307+232231777+231865833+230974971+229978172+229474566+229573663+230052936
4297+230788053+231608900+232049073+231736063+230981154+230577837+230915302
4287+231541097+231727099+231257637+230527735+230064939+230090689+230523159
4277+231238311+231986674+232148032+231254632+229856588+229102111+229414102
4267+230324427+231435626+232626199+233477132+233461347+232694849+231867318
4257+231495779+231549352+231649503+231503775+231247274+231276237+231671661
4247+232108552+232402132+232695937+232999224+233023593+232710980+232553508
4237+233062537+234055692+234792053+234878008+234706132+234782727+234980076
4227+234877714+234545621+234352813+234161768+233506440+232602228+232360942
4217+233188128+234489975+235572643+236358621+236881415+236630735+235057258
4207+232731463+231279415+231680728+233125626+234100164+234124360+233751681
4197+233448152+233284929+233322147+233575107+233800763+233766067+233583466
4187+233551188+233820158+234308480+234702747+234575809+233876408+233197575
4177+233150168+233714152+234568193+235555632+236392921+236513658+235680998
4167+234386525+233400918+233118753+233348381+233669853+233968373+234415661
4157+234999540+235483804+235760753+235816951+235514010+234860064+234270640
4147+234067005+233925905+233366048+232643332+232499262+233045353+233598302
4137+233750679+233899308+234383883+234767270+234498300+233844993+233546922
4127+233810279+234205358+234408960+234588814+235005740+235512559+235600224
4117+235019988+234265874+234097418+234611542+235191881+235343723+235072042
4107+234529542+233870087+233450294+233669974+234447179+235174144+235414066
4097+235403220+235645196+236220751+236675690+236424871+235294813+233884922
4087+233218421+233804321+235126392+236093900+235935115+234799013+233607300
4077+233242116+233802905+234607950+234897541+234566587+234088696+233696450
4067+233123001+232374310+232087465+232675282+233683825+234385938+234565810
4057+234505950+234524585+234668172+234763280+234721348+234703853+234921650
4047+235374948+235814861+235894271+235453218+234740207+234229399+234164704
4037+234393088+234673629+235046809+235751392+236686622+237186394+236750212
4027+235822892+235291445+235461249+236049049+236732251+237160074+237016108
4017+236532414+236302043+236411884+236419759+236126317+235777471+235674331
4007+235996892+236740903+237629140+238357573+238891576+239311697+239613084
3997+239846805+240157345+240487159+240493359+239967180+239148975+238484701
3987+238219012+238306090+238613763+239036993+239365460+239408653+239550772
3977+240593787+242500911+244013095+244159152+243321223+242266154+241233191
3967+240495725+240745508+242211009+243973460+244861144+244863890+244906531
3957+245304442+245445144+245178644+245562203+247653518+250845754+252902959
3947+252435500+250922677+250678231+251530942+251318585+249321550+247093575
3937+246264507+247492142+250638682+254451152+256712874+256225968+254320259
3927+253240839+253723841+254701867+255093544+255298579+256369537+258270168
3917+259371937+257861187+253918341+249786626+247543073+247677178+249992490
3907+254976485+263109126+272786678+280248397+282700473+279936043+273042247
3897+264561520+258454997+257465780+260727962+263796145+263198587+261519588
3887+263206669+267937341+271332385+271913536+272052615+271484123+268222131
3878+264479519+264110951+267346294+272108692+277338100+281456741+281461922
3868+278438867+277176051+278738890+279246382+276094903+271730832+269889369
3858+272685974+281162695+293896168+301722034+295349822+281898727+271298086
3848+266627671+267429659+271777928+277370776+282941344+288256068+292267357
3838+292944358+290223571+286414675+282982845+279958460+277544586+276356050
3828+276195746+276568615+278884030+285492519+294700591+299650339+298010163
3818+294513690+290740579+284658909+277799446+274261506+275999933+282135246
3808+289055293+292789995+294353835+297502308+301507604+302018533+299033438
3798+295911423+293009295+289371256+286226582+285547819+287569447+291192478
3788+295446710+299714032+303395506+306761898+311345512+317777756+324024826
3778+327853030+330233106+333975683+341146480+352439770+366558334+380465508
3768+392299674+402230429+410222264+416733157+423719126+431581432+437503679
3758+439774157+441345458+446183155+455453245+467112254+477076272+483559221
3748+489564919+497937050+507275496+512700596+514097776+517404447+526870004
3738+542826076+560950833+573095350+574698877+570010639+566156287+566763344
3728+571439976+577643352+583114874+587467099+590429673+590234448+586532698
3718+582482154+581886392+586121937+592938172+596699540+593287657+585117211
3708+576889358+571533997+570598352+574045432+579585484+583804035+584549428
3698+582044382+578967720+579318482+585632216+596661683+606618861+608342522
3688+602007994+594882204+591304387+591348530+593882452+597613216+602411640
3678+609674212+617901374+620883775+618615473+617397975+617300017+612493442
3668+602122325+591549144+584128305+579647934+576832815+575308628+575963938
3658+579104018+582724700+584923298+587489274+593734202+603207669+608485936
3648+602141322+587913022+574573632+566899193+565103308+566890454+569831406
3638+572756227+575262896+577234491+579684478+584691736+592514355+598023355
3628+594600834+585367218+578873699+579870654+588802588+601738230+610983036
3618+612134561+609474082+608504864+609588274+610687159+611756891+613675086
3608+614908335+613183224+609736455+608314751+610513556+614347183+617713679
3598+621105666+624968514+627424097+627376914+627288282+630118634+635441112
3588+639561705+639746913+637184530+634179747+631852242+630294931+628947144
3578+627257955+625277103+623351447+621915788+622641907+628407270+639681907
3568+650729681+653173865+646802171+639332630+636388155+637997693+640769463
3558+641689633+640518281+638874134+638160449+638765261+640733471+644379195
3548+649212644+652423982+650864183+645214878+639533865+636988683+637677222
3538+639099962+637960803+633081968+627127183+624208545+625927508+629990625
3528+632535323+632119865+630566975+629829319+629744556+629099884+627538635
3518+625583135+623861547+622979234+622984070+622828152+621392701+619241769
3508+618326849+619588352+621612934+621945217+619851554+617245028+616272148
3498+616798068+616859206+615419057+613690975+613261839+614214684+615369525
3488+615746781+615595561+615727645+616136472+615918933+614333505+611691954
3478+609464134+609307249+611200575+612856328+612070661+609047295+605728742
3468+603841288+603892754+604910675+605102239+603581817+601301149+600129038
3458+601024822+602574258+601941952+598437915+594815747+593889567+595502006
3448+597465519+598191016+597477608+595755398+594009079+593669749+595406051
3438+598143833+599766013+598825049+595568601+591705545+589126790+588253664
3428+587832680+586896345+586268667+587319678+589893598+592102558+592044115
3418+589665006+586512733+583848592+581770818+580023670+578666523+577858714
3408+577793121+578693603+580263522+581472247+581508653+580668480+579867683
3398+579605656+579402037+578357589+576360364+574247531+572902715+572427916
3388+572042853+570906319+569237544+568276029+568727651+569839419+570407583
3378+569899797+568516813+567061639+566461180+566731186+567053108+566968828
3368+566562627+565867491+565130353+565074949+565815645+566187374+565126277
3358+563191192+561906201+561938876+562554533+562658709+561931692+560847452
3348+560174526+560626252+562186465+563756834+564132984+563212089+561929481
3338+561336828+561749108+562441308+562412605+561403803+559935434+558753893
3328+558349868+558596145+558873508+558845392+558669890+558448551+558272704
3318+558379642+558455840+557699428+556283009+555506702+555881298+556404558
3308+556370708+556616950+558073368+560171038+561672704+562214236+562154204
3298+561873801+561775739+561928445+561496683+559528818+556470911+554070698
3288+553791020+555737366+558769022+561361559+562610006+562704027+562594635
3278+563001873+563598049+563368490+561934973+560167825+559119232+558883007
3268+558813925+558411282+557735523+557049334+556478061+556271610+556841535
3258+558161136+559601769+560485187+560331653+559022690+557400166+556980908
3248+558378502+560583663+562145776+562351916+561026582+558339782+555309024
3238+553588783+554163267+556388808+558367208+558305138+555995318+553197089
3228+552049329+552866394+553879548+553258365+550815769+547651925+545033309
3218+543855153+544330436+545801465+547198438+547911327+548064758+547863419
3208+547135331+545865055+544595089+543757126+543182331+542759239+542810463
3198+543161261+542740725+541044559+539140042+538172793+537657684+536269969
3188+533713457+530987523+529169807+528541336+528741984+529277610+529835584
3178+530233115+530144967+529137408+527232166+525276528+524281923+524259540
3168+524137265+523051472+521143155+518982172+517071749+515983157+516013035
3158+516518300+516488353+515883230+515428499+515150169+514261569+512514939
3148+510648209+509404702+508938607+509094456+509504318+509597199+509143158
3138+508550678+508289860+508375452+508496380+508267270+507484331+506351078
3128+505167568+503896428+502503220+501400674+501044074+501413972+502086899
3118+502489887+502128244+500906497+499208017+497561141+496291900+495363441
3108+494488554+493526382+492555713+491489608+490175741+489013128+488825985
3098+489792509+490903898+490883242+489628578+488283831+487759915+487790138
3088+487665549+487321210+487256377+487633426+487875834+487263320+485740342
3078+483939102+482583406+482058039+482236339+482576671+482672314+482616531
3068+482610244+482661710+482788648+482931302+482847748+482553943+482322588
3058+482053479+481479271+480838226+480396552+479809840+478768811+477535113
3048+476357441+475210475+474224021+473553651+472973571+472255500+471628513
3038+471385587+471429005+471530935+471608031+471426311+470583720+469190270
3028+467929769+467123895+466459155+465780771+465310255+465015310+464568834
3018+463871315+463025442+462073737+461169248+460584816+460304309+460031643
3008+459663333+459276648+458661958+457458000+455870672+454700944+454393772
2998+454433666+453982907+452900948+451838400+451397693+451447224+451394619
2988+450940129+450212456+449346619+448443650+447807856+447620678+447502307
2978+446927200+445866725+444636827+443494559+442648479+442226458+442046846
2968+441718258+441002294+439986446+439110730+438959993+439587118+440179357
2958+439884964+438748050+437431005+436364036+435512396+434683966+433781274
2948+432858513+432028564+431332012+430750654+430299204+430003983+429817600
2938+429603723+429244325+428795431+428430955+428161536+427782208+427195738
2928+426590581+426175537+425847882+425264763+424251678+422962991+421636758
2918+420491105+419833826+419834827+420161653+420274533+420053402+419759321
2908+419491836+419047087+418284769+417346293+416460560+415764906+415365993
2898+415322989+415454245+415351002+414723705+413692451+412712733+412185017
2888+412088924+412042363+411702065+411002612+410103892+409254047+408615248
2878+408185628+407938557+407853862+407744782+407363485+406748518+406163257
2868+405698164+405213382+404627775+404070838+403725912+403546230+403232012
2858+402618427+401944326+401563720+401471979+401241626+400505076+399484737
2848+398797166+398694372+398875297+399025101+399018849+398682628+397923971
2838+396995201+396187012+395444555+394643033+393987689+393720722+393608602
2828+393181884+392409307+391663983+391103971+390593215+390104081+389692112
2818+389238900+388632327+388010107+387554409+387241365+386917716+386419464
2808+385613037+384549384+383583827+383131479+383183740+383228090+382835257
2798+382156838+381597103+381204269+380689886+379909261+379079796+378548625
2788+378420410+378425038+378168261+377483556+376537204+375703698+375300985
2778+375246031+375043586+374349452+373400924+372644167+372157347+371691736
2768+371101501+370490437+369984586+369551685+369120614+368748608+368496321
2758+368227593+367742673+367060974+366391536+365838640+365250166+364422462
2748+363456318+362735346+362427621+362273914+362025703+361702089+361259482
2738+360535953+359695400+359168789+358997086+358715716+358009700+357104832
2728+356428521+356145665+356108015+356112333+356075616+355940837+355555084
2718+354803301+353796606+352780620+351895751+351119168+350419990+349867405
2708+349500926+349175032+348747830+348415685+348566352+349213580+349829513
2698+349821224+349022638+347747180+346491618+345550136+344900974+344469178
2688+344274436+344225630+344081422+343749691+343352229+342951623+342508739
2678+342094663+341837402+341653990+341296526+340712681+340159301+339914406
2668+340022484+340299883+340442398+340211492+339656593+339034062+338439923
2658+337739814+336909346+336185818+335795126+335707599+335715751+335636341
2648+335385332+334965280+334504919+334207936+334096611+333943560+333601432
2638+333153920+332657014+332109714+331701060+331624932+331666105+331426391
2628+330908208+330475825+330296972+330157530+329837612+329436281+329228518
2618+329312556+329486435+329423778+328962760+328266657+327663055+327315228
2608+327138033+326970751+326684545+326226118+325711113+325346775+325181186
2598+325083194+324963509+324828454+324664834+324445914+324205267+323988419
2588+323768428+323465125+323045798+322605401+322312943+322206454+322082521
2578+321723054+321213299+320850930+320740710+320697396+320563032+320377581
2568+320192891+319947478+319601827+319236488+318956948+318792015+318694334
2558+318569848+318326196+317966384+317604602+317321850+317072085+316796725
2548+316520847+316283550+316127633+316156440+316379885+316550897+316413459
2538+316033612+315657911+315406418+315292572+315309082+315331983+315180935
2528+314886336+314680576+314697086+314863297+315035518+315067261+314845060
2518+314420932+314029238+313859089+313873700+313912006+313903025+313905892
2508+313932178+313828141+313460902+312973357+312673265+312664008+312729774
2498+312600038+312242816+311883729+311762076+311897545+312130765+312333348
2488+312484084+312587984+312626428+312567708+312392966+312137535+311888530
2478+311707950+311581081+311437667+311205691+310885289+310576183+310371735
2468+310256990+310178997+310147495+310172710+310172572+310037517+309770032
2458+309524481+309499957+309748340+310060694+310118861+309832689+309461893
2448+309322486+309443448+309614184+309697911+309737080+309754212+309623544
2438+309249881+308796220+308587075+308758571+309102011+309296925+309212369
2428+308943364+308652012+308448669+308377722+308438273+308586384+308749037
2418+308896562+309069853+309257030+309330464+309242247+309165221+309285907
2408+309564894+309797112+309806335+309575912+309297340+309235546+309465139
2398+309817250+310092402+310212674+310189013+310064942+309915242+309844710
2388+309895416+309879596+309411843+308242840+306442015+304144733+301342049
2378+298087673+294688122+291436268+288269349+284949778+281565597+278550849
2368+276129565+274083983+272213247+270663414+269722208+269699083+271041343
2358+274133670+278912648+285053573+292452254+300762142+308476786+313498171
2348+314675118+312656167+309695976+308004301+307747385+307597270+306765525
2338+305495318+304183834+302769625+301041785+299235364+297940045+297421724
2328+297365319+297313473+297097489+296877187+296957184+297538266+298538674
2318+299652895+300615377+301399629+302147198+302944540+303745440+304490799
2308+305198404+305900552+306519732+306857404+306788633+306456799+306152251
2298+306027524+306071598+306271452+306593581+306898404+307076221+307179464
2288+307267405+307251101+307045548+306756579+306570645+306529922+306512858
2278+306394210+306161267+305881692+305599148+305306586+305025665+304819594
2268+304681465+304520608+304322101+304200448+304233020+304350839+304441336
2258+304477950+304507517+304546686+304540814+304443547+304281723+304100970
2248+303928991+303834349+303909095+304140070+304379094+304473218+304404619
2238+304306903+304319752+304423340+304501783+304546617+304647580+304808057
2228+304924391+304906430+304739493+304512421+304386036+304427796+304530072
2218+304579638+304596770+304634834+304674177+304681292+304676284+304685437
2208+304687371+304660913+304647684+304703018+304802012+304857727+304818005
2198+304713622+304647580+304720738+304902319+305028255+304997894+304887363
2188+304808195+304756004+304663918+304531903+304432045+304401821+304405172
2178+304431665+304551349+304798144+305061242+305154744+304990675+304699357
2168+304548759+304660809+304868780+304957965+304938656+304961212+305088771
2158+305258263+305387170+305479049+305647194+305975056+306342848+306503360
2148+306358184+306073809+305904558+305963243+306194668+306522046+306919474
2138+307321841+307593644+307665765+307606148+307517066+307478139+307585941
2128+307878779+308221148+308430536+308508771+308602273+308786411+309018802
2118+309230158+309378545+309492945+309679811+310007743+310427691+310849263
2108+311188524+311348448+311304201+311191633+311209283+311484090+312028075
2098+312693610+313218735+313479450+313635713+313902058+314265014+314526592
2088+314561893+314468771+314462553+314633566+314860327+315006469+315102424
2078+315224906+315314401+315279792+315196790+315222834+315399407+315710828
2068+316206179+316840419+317337394+317472552+317361400+317236189+317122100
2058+316944422+316757970+316661255+316636110+316632552+316693240+316878829
2048+317163066+317499045+317905419+318357111+318657168+318611435+318329478
2038+318148311+318244231+318498072+318725110+318863688+318934980+318968208
2028+319002749+319083610+319211446+319345395+319529326+319950967+320688104
2018+321406382+321585788+321142524+320550010+320279071+320389809+320655498
2008+320831311+320797564+320615326+320474158+320533395+320785648+321049126
1998+321207289+321566514+322667333+324426813+325838776+326027197+325229785
1988+324225577+323408996+322842386+322579426+322586715+322681771+322689854
1978+322563330+322426790+322487237+322785187+323220886+323893363+324979191
1968+326129714+326549732+325993347+325145091+324722932+324755228+324942094
1958+325214726+325610495+325948513+325996559+325817775+325731561+325986300
1948+326673112+327989466+330139120+332505173+333477948+332165186+329715752
1938+327881871+327241966+327356608+327703087+328028256+328263687+328409138
1928+328611583+329390342+331167541+333321789+334741662+335524118+336463907
1918+336985613+335766388+333324587+331674153+331835390+333100382+334093502
1908+334059410+333335467+332709171+332505034+332514153+332598468+333002631
1898+334008980+335345472+336250478+336598616+337351332+338954134+340145381
1888+339650651+338144771+337025784+336625006+336575439+336682689+336889174
1878+337132377+337441587+337963535+339264070+342441177+347840164+353194040
1868+354552983+351003490+345949533+342655504+341669395+341882789+342218976
1858+342278559+342154764+342054354+342113142+342614020+344056000+346746979
1848+350731688+355854658+360635673+361854518+358432964+353701550+350916551
1838+350300548+350417434+350667200+352187380+356151088+361335541+364460803
1828+364405572+363331488+362298438+360151306+356921523+354561584+354125229
1818+354712562+355152476+355646825+357237503+359972004+362283758+362679839
1808+361598432+360853764+362038552+365619789+370361116+373640742+373757179
1798+372007474+371434475+374162655+379651241+383830691+382381803+376961781
1788+372844988+372387079+374181894+376113698+377675466+378962357+379565165
1778+379853063+381675787+386708122+394282426+400444353+401270260+397606298
1768+392491273+387923824+385835066+387469231+391084939+393201572+393285817
1758+393246924+393403118+393704384+396224213+402676766+410741690+415150319
1748+414017516+410505465+407908990+407315404+408369800+409814197+410223853
1738+410502425+413986878+421777857+428268648+426686363+419823152+413078279
1728+408136925+405616751+405772427+407691589+411017845+417560723+428962437
1718+442154199+448414429+443655105+433993770+425951954+422116289+423028100
1708+428130795+435186364+441099285+445812220+452560202+462085688+469326707
1698+470463725+467043587+459758666+450648189+444822208+444683630+448758352
1688+455543362+466040346+479533720+487199212+482261139+472383025+465962871
1678+465500990+470016558+475811625+479629674+482843983+487302835+489621221
1668+485930317+480292480+478892537+482102217+485191107+484687259+483181033
1658+485521249+494782428+511612005+529722255+533604446+525490026+521910413
1648+525591403+528032686+521892348+512260890+506752236+507323957+513499838
1638+524263098+535512763+538603415+531379562+523064908+520183609+522446522
1628+526613020+530534588+534403654+537537724+537818749+536478112+537820752
1618+543026068+547226692+545329912+540410941+537861096+538724308+540919038
1608+542271280+542581837+543099329+544516232+546179584+547208869+547795857
1598+548876159+550828757+553020412+554594683+555365326+555773496+556275479
1588+557037071+558063593+559359879+560892943+562725200+565605498+570978475
1578+579108819+586094097+586193713+581940552+581009122+585296617+589899470
1568+589936498+587425097+586559018+589251344+597616532+614661437+636640511
1558+644679080+633635590+620578364+613088996+610618008+611200921+612865447
1548+615442268+621145940+631622200+645847184+661398540+673500985+673410765
1538+662907356+655196028+655629378+660142494+662033886+660972029+662341921
1528+668684946+677898320+687485013+697744424+708153881+714564744+715557035
1518+714846874+713953991+712020046+710774362+713819144+723097455+738042410
1508+754078306+759099519+747000389+731974332+724892132+726062585+732392691
1498+739116840+741086087+738243231+736627476+740917803+749985000+757489912
1488+757822956+752760017+747760220+745863095+746953275+749649401+753549761
1478+759619774+768419072+778720278+787096864+788796138+783204932+776460473
1468+774166611+776880767+781087781+783387722+785630049+792551703+805727749
1458+819591021+822063184+811199030+798785716+791854875+790894775+793721327
1448+796390304+795818997+792946506+790859060+791092557+793582818+798227673
1438+804186119+807970353+806578146+802898296+801344300+802187236+802686145
1428+801460288+800107044+800233948+801850324+804900356+809744857+814611949
1418+815114657+810196169+803875389+799470593+797513298+797048516+797071313
1408+797424459+798354231+799427417+800109877+801401638+804977590+810768028
1398+816602403+820169305+820336967+817357744+813499317+811906428+813794849
1388+817084180+818093604+816118623+814502454+816128226+820875943+827228570
1378+834295503+841594551+847609298+850218312+849630632+848764001+849435545
1368+850886540+852590927+855680543+860087411+862857730+861806995+858850431
1358+857077999+857171812+857746573+857582987+856834002+856197482+855802058
1348+855423489+855100670+855127681+855976351+858141168+861346358+864070392
1338+864700626+863142209+860588668+858127352+856186705+854999258+854974457
1328+856224355+858035542+859467332+860446360+861742680+863789091+865889110
1318+866946960+867032552+867459063+869051745+871230724+872923021+873633804
1308+873534603+873108921+872876668+873247844+874568620+876887835+879426730
1298+880965390+881141617+880680842+880106150+878993725+876859788+874102386
1288+871452338+869064870+866871384+865149105+863922005+862599848+860969862
1278+859683006+859205236+859251659+859618967+860609324+862375539+864435145
1268+865911700+866147061+865240777+863959931+863110639+863094888+863804773
1258+864743249+865526499+866303601+867436819+869008223+870866041+872901537
1248+875053643+877048174+878353544+878709523+878665863+879286218+881247382
1238+884294650+887530512+890303733+892730785+895063195+896868165+897616183
1228+897933959+899232698+902153408+905959541+909280857+911378319+912849555
1218+915042972+918382180+921565195+922981510+922678103+922321364+923344259
1208+925731243+928705976+932014443+935752115+939081237+940479385+939944346
1198+939602114+941322183+944853991+948563202+951325853+953383870+955572313
1188+958181534+960717735+962720486+964525940+966812272+969567255+971874381
1178+972683813+971855867+970436512+969541971+969258667+969112352+968998436
1168+969110763+969741480+971536709+975060573+979794751+983821116+984992882
1158+983202696+980881546+980332691+981633226+984007706+987604659+992316938
1148+996295567+997643492+996982102+996830744+998711842+1001633244+1003659345
1138+1004500761+1005329536+1006356092+1006221313+1003977259+1000661262
1130+998663761+999778673+1003705422+1008331625+1011673459+1013314566+1013803666
1120+1013555109+1013031055+1013263377+1015278494+1018875861+1022555366
1111+1024947255+1025615346+1024688613+1022850069+1021364879+1021163091
1103+1022117318+1023617085+1025245274+1027073318+1029749686+1033259941
1094+1036167319+1037333144+1037283750+1037204099+1037968489+1040004469
1085+1043059889+1045804510+1046580506+1045451226+1044939191+1047855204
1077+1054083760+1059751371+1060704148+1056863613+1051684824+1048499461
1068+1048955678+1053141622+1059212049+1063469770+1062467047+1056650564
1060+1051572014+1052481200+1058458574+1063700365+1063983531+1060885073
1051+1059122519+1060261126+1060915814+1058280343+1055046415+1055947173
1043+1061648427+1068436546+1072493100+1072514032+1069271745+1064913234
1034+1062311889+1063129749+1066193942+1068402834+1067442735+1063654287
1025+1059796343+1059371697+1063883846+1070428106+1073741823+1071948873
1017+1068042572+1065002419+1062703514+1060175465+1057707171+1056114144
1008+1055996498+1057918561+1061855949+1066221161+1068280697+1066365334
1000+1061692156+1057191820+1054424610+1052561058+1050679546+1049478351
991+1049803381+1050750493+1050687559+1049745559+1049440839+1049506398
983+1047347453+1042540117+1038546221+1037703146+1038552300+1039228265
974+1040227879+1041960935+1042260543+1038942612+1033238042+1028718778
965+1027041540+1026498764+1025060550+1022875215+1020778513+1018301998
957+1014347478+1008855196+1003458800+1000358546+999889549+1000104394+999623377
947+998964820+998268130+996448998+993087476+988735183+984004321+980072460
937+978369800+978706574+979305030+979017995+978203175+977429527+976418377
927+974685735+972866120+972262483+972807193+972955995+972187460+971730276
917+971924120+971468733+970380970+970668558+972919727+974662731+973348449
907+969281533+964429985+960406038+958028794+957396902+958070865+959561651
897+961362407+962451758+962058959+960775142+959795562+959490013+959282698
887+958521831+957136119+955419021+953328674+950742664+948290260+946816399
877+946443150+946984544+948384764+950151669+951500976+952246023+952362702
867+951535240+950230837+949604334+949809438+949799698+949172296+948861497
857+949556046+950397601+949899244+948038456+946152730+944943729+944149011
847+944087183+945766286+949061627+952099363+953230647+952727938+951794228
837+950893816+949626026+947628318+945055848+942719017+942172304+944547406
827+948624547+951397215+951603700+951190177+952493198+955635730+958709457
817+959358205+956807082+952870592+950510411+951257117+954271433+957889249
807+960941975+962690436+962606501+960759115+957889663+954865123+952466187
797+950956680+950304962+950842280+952897603+955771891+957788389+958039156
787+957110904+955899139+954719222+953506974+952536858+952998117+956290764
777+961757140+965982599+966174163+963258357+959956177+957423361+955438087
767+954139556+953936663+954365868+954255545+953449083+953020914+953499237
757+954304385+955162244+956749399+959368014+962121892+963778267+963878021
747+962933397+961959205+962223581+964274275+966610277+966811305+964570705
737+962226344+961995956+963654542+964707280+962842001+958737159+955651067
727+955921384+958497790+960292813+959919909+958953040+959327809+960908884
717+962338533+963631814+965800845+968177191+969128448+968742211+968262231
707+967727399+965421309+959915833+952372719+946191070+944225968+946603074
697+950697140+952959500+951703800+948470356+946184853+945329965+942864089
687+936657985+929932524+928252315+932395360+936277206+933731126+926287490
677+920023703+917776264+918055700+917604388+913035454+903733033+896238138
667+900074667+911449888+918183570+916520149+910716999+905753608+903590656
657+904293839+906310545+906120501+900649151+891658220+885536396+886529033
647+892113539+895822128+894623420+891663263+890609973+890728932+889622172
637+888195494+889286503+891745125+889788521+881100583+871400044+866877602
627+867179835+868553941+870064346+872738435+875410796+875916475+875349935
617+876351691+878558855+879879285+880520779+881405855+880292533+875859068
607+873026368+877507568+887871638+896008027+895363839+887663495
##END=
