##TITLE=<SNM>
##JCAMP-DX=4.24
##DATA TYPE=INFRARED SPECTRUM
##DATE=2/5/2025
##SAMPLING PROCEDURE=Instrument type and / or accessory
##ORIGIN=Admin
##XUNITS=1/CM
##YUNITS=ABSORBANCE
##RESOLUTION=4
##FIRSTX=4497.3318
##LASTX=599.83466
##DELTAX=-1.4281778
##MAXY=1.8651688
##MINY=0.3779794
##XFACTOR=1
##YFACTOR=1.7370738e-09
##NPOINTS=2730
##FIRSTY=0.40079409
##XYDATA=(X++(Y..Y))
4497+230729451+230598700+230154876+229891196+230173336+230667704+230789242
4487+230545669+230457604+230791609+231318507+231664384+231526531+230784541
4477+229780124+229284606+229928220+231619537+233264840+233331219+231355788
4467+228670776+227130300+227432274+228951064+230589367+231511913+231463051
4457+230757468+230089886+230040064+230322565+229997000+228892045+227953149
4447+227779095+227886753+227715221+227350883+227026880+226709036+226408830
4437+226472412+227310136+228797306+230005853+229863762+228335073+226622567
4427+225817595+225692558+225336575+224652832+224416397+225018852+226067859
4417+227163104+228235513+229190039+229805430+229966942+229755418+229371779
4407+229037053+228816213+228520827+227976980+227463104+227612985+228586520
4397+229608780+229796680+229181340+228422949+227934894+227817114+228151342
4387+228809350+229295397+229119988+228177317+226722213+225270728+224481317
4377+224644031+225192511+225198327+224458499+223630194+223323623+223596310
4367+224187167+224740245+224866140+224379441+223510167+222707992+222219182
4357+221935154+221704689+221649531+221939015+222385601+222624370+222599682
4347+222538484+222577841+222691847+222833407+222925126+222818086+222422231
4337+221750292+220857409+219945724+219307154+218934255+218505168+217996422
4327+217868331+218313237+218827901+218985570+219152093+219821115+220617028
4317+220743352+220236408+219915820+220143728+220458484+220482177+220388485
4307+220265420+219805554+219031859+218681675+219343355+220565970+221268311
4297+220921026+220072528+219761376+220515049+221846798+222742356+222674485
4287+221923368+220912654+219757104+218606838+217828030+217595472+217760656
4277+218170253+218735718+219363188+220104045+221006724+221673739+221577782
4267+220836547+220106996+219864590+220084126+220360725+220316444+220147263
4257+220380661+220903578+221012866+220645148+220614352+221388716+222396599
4247+222699465+221960014+220807192+220347703+221061573+222320149+223274177
4237+223727078+223806170+223505466+223006860+222746337+222780839+222728031
4227+222487821+222310147+222132679+221602985+220861870+220679753+221503339
4217+222694592+223269579+223237977+223392335+223835027+223782614+222968584
4207+222193156+222201717+222786106+223189990+222976561+222411834+222083267
4197+222119022+222023031+221454717+220799506+220722593+221367150+222128578
4187+222278115+221827050+221469729+221547929+221643063+221456708+221364748
4177+221702339+222251059+222840201+223633797+224430637+224530591+223714107
4167+222617902+221868724+221510391+221390946+221471994+221591284+221443205
4157+221059360+220968636+221554071+222462034+223003737+223035186+222987507
4147+223071781+222987490+222506110+221904924+221550829+221310722+220778764
4137+220055818+219807887+220360880+221218608+221784125+222194665+222991676
4127+224117820+224764659+224334868+223174755+222113446+221588590+221487246
4117+221533809+221526792+221360047+221069740+220869625+221035341+221631070
4107+222318725+222633583+222543322+222486088+222780049+223232727+223350662
4097+222795370+221726547+220730004+220248229+220168365+220158088+220150111
4087+220185762+220107905+219837225+219678801+219952861+220453783+220578203
4077+220103221+219616437+219816586+220513179+220832052+220394764+219675318
4067+219183609+218970438+218924441+218997803+219125054+219217030+219243795
4057+219311975+219696850+220665684+222154262+223621719+224317969+223923264
4047+222931113+222065150+221411723+220655013+219941314+219693144+219750670
4037+219515864+218938287+218702297+219315732+220444484+221324499+221577988
4027+221417247+221301783+221587184+222179533+222445650+221920829+221067818
4017+220769568+221172491+221607377+221552647+221203527+221088115+221394703
4007+221749931+221663239+221179782+220946161+221537944+222775331+223834221
3997+224074774+223575310+222838862+222338884+222388055+222962236+223602332
3987+223886377+223893978+223845733+223579857+222847115+221902848+221378593
3977+221612747+222387369+223288863+224065252+224598772+224835756+224937289
3967+225308730+226190803+227265992+227909588+227808261+227163412+226387984
3957+225814250+225577952+225598248+225793610+226293160+227046095+227421294
3947+226962337+226325757+226529492+227500609+228145749+227803029+226941869
3937+226492623+227104445+228756920+230568402+231262456+230468619+229259797
3927+228854781+229307733+229815346+230047681+230523657+231476673+232180781
3917+231795667+230416566+228901859+228047613+228211837+229318765+231131654
3907+233661518+236934436+240156793+241870620+241525119+239859949+237618899
3897+235261922+233686687+233964144+235965430+237568339+236854108+235213832
3887+235113432+236314035+236808815+236518199+236753262+236989268+236098668
3878+235231761+236053700+238277456+240764583+243164229+244845612+244504985
3868+242756845+241769567+242024377+242074011+241055011+239873400+239901125
3858+242218436+247504906+254473652+257724936+253628054+246844840+241945783
3848+239827248+239983528+241607866+243941733+246643284+249509143+251648677
3838+251890345+250541183+249119808+248223477+247349587+246277093+245501630
3828+245384845+245998297+247887327+251599335+255832766+257683451+256831865
3818+255565363+254169328+251419087+247987780+245951837+246483744+249254659
3808+252500932+254571257+256271770+259109115+261929973+262362611+261223703
3798+260712813+260731445+260382737+260228224+261247808+263271192+265587336
3788+268152354+271398370+275447008+280395218+286731348+294407531+302082889
3778+308583877+314518319+321280397+329792210+340304245+351857550+362310223
3768+370249416+375751271+379309967+381909538+384582781+386807926+387088368
3758+385838302+385828008+389402694+396766935+405622566+412166995+415554261
3748+419292381+426215628+435321129+442527494+447022495+452482110+461696967
3738+474712497+488840359+500117717+507006410+511619964+516769181+523970743
3728+533592349+544832168+555722061+564017220+567978513+567754962+566473191
3718+567252616+570174904+573695066+576822856+578725182+578296747+575238167
3708+570387131+565798215+563957789+565317967+567381051+567754516+567067325
3698+567274988+569193236+572105230+574746252+576625898+578049417+579004904
3688+579107088+578491852+577829194+577995065+579548494+582117115+585071623
3678+588331244+590863837+590720888+588792140+586861745+583628682+577690157
3668+571651678+568714155+569025067+570710122+571473180+570362117+568576524
3658+567637130+567346429+566925474+567399099+570645785+575972093+578004123
3648+572879371+565232630+560758971+559885974+560067834+559360054+557736283
3638+556296362+556006827+557397096+561030320+567136706+573518558+574897745
3628+569681033+564174889+562820031+564499699+566638443+567901617+568636984
3618+570191786+573242886+576684848+578928591+579869941+580560529+581261755
3608+581473605+581181805+580739507+580581048+581668916+585155073+590922238
3598+596999045+600830806+601097557+598719923+596421828+596982918+601043068
3588+605666366+606332523+602306687+597047015+593887040+593876197+595656986
3578+597099858+597771986+598748403+600560692+603003383+606106193+609598252
3568+611782634+610841010+607624623+605024914+604736957+605776306+605934490
3558+604669841+603390849+602824062+601931849+599987798+598032423+596916282
3548+595894159+594363788+593339126+593765296+594372778+593212990+590800494
3538+589507091+589988574+590284629+589002961+587482815+587500727+588618721
3528+589448072+590138180+591359183+591958429+590219640+586614347+583132444
3518+580840662+579418447+578127308+576817022+576449116+578150847+581306019
3508+583617634+583578585+581495496+578302992+574846275+571802450+569608083
3498+568603803+568872030+569743209+570190036+569812831+568864309+567671032
3488+566773226+566839416+567531514+567332669+565387657+562696606+560777569
3478+560131279+560590184+561949469+563365268+563103527+560019315+555258317
3468+551839174+551987784+554837122+557243853+557351597+556287578+555485883
3458+554316453+551741793+548456608+545836895+544259789+543558255+543697223
3448+544226196+544426929+544443399+544768380+544527913+542331556+539030450
3438+537184500+537562770+538250887+537351125+535038172+532775385+531706905
3428+531977534+532774424+533059739+532528913+531627538+530774751+530001434
3418+529112652+527889556+526563658+525895407+526089963+526285343+525825305
3408+525078100+524441212+523638316+522544341+521709980+521607658+522035510
3398+522493077+522876871+523388825+523522132+522045667+519037939+516798245
3388+517184132+519000572+519448806+517647223+515223232+513731979+513059954
3378+512363566+511551406+511427467+512661714+514842390+516604821+516974066
3368+516497146+516409304+516865190+516909934+515971364+514302025+512268999
3358+510274919+509098489+509414720+511047722+513069904+514342000+513851320
3348+511269763+507654245+504915739+504079525+504574871+505471442+506563461
3338+507783846+508646103+508986662+509274928+509609276+509333604+508099287
3328+506562843+505562097+505036315+504278576+503081078+502035038+501605642
3318+501527889+501480090+501666720+502203825+502484679+501809051+500303866
3308+498723021+497731883+497643732+498355320+499288572+499683414+499241357
3298+498485470+498326497+499019727+499665571+499325596+498447108+498241194
3288+499028786+500123344+500912652+501247687+501198996+501059616+501110331
3278+501213305+501133629+501014357+501025749+501005298+500896147+500964122
3268+501154355+500929088+500184250+499572411+499426168+499143598+498243356
3258+497229777+496755122+496639417+496193517+495048209+493539421+492546156
3248+492696551+493587323+494304710+494600147+494745155+494516217+493494265
3238+492209165+491745868+492082481+491875744+490333843+488338494+487043580
3228+486363904+485573326+484514351+483553717+483004877+482881418+482732670
3218+481877103+480348105+479256841+479507327+480471461+480671713+479672511
3208+478431092+477716039+477264202+476539678+475358616+473792628+472155165
3198+470922084+470254897+469927069+469752895+469595534+469187824+468359365
3188+467196729+465877796+464631333+463676567+462986665+462370228+461798329
3178+461389624+461154784+460862709+460117014+458800277+457420370+456544833
3168+456018605+455286738+454219836+453071989+451918893+450549108+448761491
3158+446729975+445180388+444876991+445675837+446441366+446215894+445072645
3148+443539220+441840268+440121140+438759796+437976322+437574171+437328419
3138+437185779+436952277+436270302+435079323+433763685+432729243+432059243
3128+431624665+431298278+430942381+430388942+429659649+429077559+428952247
3118+429194155+429296237+428683986+427186281+425262920+423690962+422886762
3108+422525066+421975540+421166365+420701214+420903216+421178958+420818703
3098+420047684+419604288+419547740+419224509+418379477+417557263+417248066
3088+417314977+417466779+417695751+417985492+418090868+417833862+417253591
3078+416430965+415525781+414849570+414464404+413885025+412643125+411008888
3068+409684191+408935407+408526222+408262868+408082380+407855913+407491712
3058+406983807+406218313+405109446+403985721+403395362+403429058+403591943
3048+403463989+403185502+403050033+402865085+402137781+400822692+399419040
3038+398309418+397440847+396698068+396169816+395884364+395548506+394826143
3028+393829892+393046212+392671889+392298183+391493435+390452988+389734606
3018+389541903+389577177+389455880+389008126+388283121+387465094+386740329
3008+386191626+385829244+385565787+385110347+384233849+383213922+382587362
2998+382417477+382264578+381832540+381149500+380259517+379253453+378430930
2988+377976005+377633147+377037949+376199677+375375953+374654311+373963311
2978+373382696+373086710+372924855+372404563+371343048+370266813+369807805
2968+369906387+369975391+369712620+369351439+369137942+368940160+368464613
2958+367616355+366496062+365198232+363858094+362825299+362464358+362706266
2948+363034335+363019581+362701222+362353183+362049031+361639536+361097009
2938+360612884+360281281+359941785+359429077+358783919+358163741+357631063
2928+357039914+356189186+355101250+353999760+353001519+352075782+351287504
2918+350792741+350562019+350289949+349709506+348989923+348612031+348712226
2908+348853288+348667790+348322702+348079421+347865752+347563590+347289770
2898+347134880+346962490+346651166+346229285+345632132+344677194+343471632
2888+342513846+342151876+342182483+342153249+341880081+341536159+341309589
2878+341100072+340674073+340053861+339466281+338922999+338238416+337467431
2868+336924287+336739236+336705986+336588738+336365736+336143283+335995942
2858+335945021+335932016+335737769+335142160+334256329+333455252+332957229
2848+332707909+332576215+332417997+332095315+331611361+331113956+330720589
2838+330392589+329940100+329214512+328370681+327730395+327352401+327064066
2828+326851530+326796663+326759056+326549676+326269063+326125874+326091286
2818+325961410+325605753+325048266+324414740+323802661+323161209+322399558
2808+321615431+321045900+320780899+320675283+320519775+320179113+319629827
2798+318958625+318301012+317791666+317565199+317661687+317883420+317879714
2788+317425647+316576394+315612329+314883001+314592779+314651249+314760468
2778+314644901+314163143+313296528+312177504+311096911+310315976+309824953
2768+309401768+308928623+308520878+308327763+308287480+308096595+307481084
2758+306548656+305726099+305253948+304931987+304463886+303856610+303344759
2748+303030656+302738238+302249755+301575294+300872249+300214979+299595797
2738+299054231+298667074+298448156+298287947+298011279+297576462+297146105
2728+296830766+296490859+295928191+295142040+294325831+293701158+293325428
2718+293028790+292633295+292168660+291748323+291384293+291067342+290857448
2708+290757596+290625044+290311009+289831413+289356243+289044095+288898813
2698+288768114+288480741+288014698+287499296+287023628+286570196+286180535
2688+285954187+285819182+285569845+285180647+284819603+284531251+284145811
2678+283569314+283028365+282871073+283111472+283366728+283331780+283066505
2668+282710076+282248271+281719075+281338386+281225084+281184818+280918015
2658+280350525+279651564+279006492+278515539+278249988+278200303+278184004
2648+278003482+277683768+277391694+277176395+276977842+276851466+276941281
2638+277172518+277206917+276838753+276244379+275725717+275406638+275264204
2628+275230251+275157627+274862567+274313898+273707583+273287057+273112403
2618+273048220+272970638+272897894+272893193+272943359+272990231+273000507
2608+272953327+272807598+272526744+272120836+271654570+271231951+270957342
2598+270836783+270733517+270538103+270350547+270329341+270418916+270432058
2588+270315787+270127288+269887112+269659649+269604354+269756344+269939268
2578+270031983+270099700+270169373+270134888+269972020+269798550+269656681
2568+269462177+269206972+269018592+269006806+269198051+269579099+270060360
2558+270434666+270519557+270345486+270107695+269936008+269799167+269628545
2548+269445449+269321904+269239655+269055719+268678153+268227243+267892380
2538+267664763+267367096+266920406+266451361+266153916+266101572+266157536
2528+266093045+265836605+265539915+265398253+265499031+265790642+266078084
2518+266118797+265837600+265405905+265057728+264876812+264780717+264663915
2508+264517157+264404490+264344871+264253374+264043377+263789734+263690654
2498+263793714+263895024+263828285+263686948+263623915+263618991+263560470
2488+263397945+263157014+262911023+262722643+262576726+262451380+262415797
2478+262512783+262604348+262500533+262197496+261851859+261565394+261315611
2468+261076516+260902651+260870551+260981486+261131298+261158148+260953744
2458+260579489+260251420+260155051+260265557+260354857+260186465+259733324
2448+259199994+258804551+258581617+258441534+258349883+258349797+258427774
2438+258443421+258243306+257839044+257413663+257122618+256965875+256890558
2428+256898004+256988625+257110008+257209156+257274317+257339907+257476405
2418+257701809+257908254+257981908+257955160+257920298+257853730+257669280
2408+257418433+257298611+257426119+257691034+257898046+257989251+258063830
2398+258251044+258641751+259325889+260497480+262574341+266198232+272061954
2388+280728022+292594075+307963425+327048179+349792201+375652346+403642486
2378+432693797+461968831+490774494+518260161+543371007+565134528+583003770
2368+596955056+607027847+612715199+613346906+609488999+603368957+596805519
2358+588781366+576180374+557072287+532686857+507552574+487733654+477495748
2348+478209292+489009180+506210583+523130034+534134773+538613853+539356597
2338+539145571+539254619+539984118+541505808+543416987+544256632+542777560
2328+539345240+535085902+530247185+524184515+516530052+507728842+498506195
2318+489349774+480586582+472483920+464902545+456988675+447645795+436481294
2308+424145887+411773388+400210029+389636951+379723441+370105026+360725020
2298+351765419+343396898+335628276+328302054+321252432+314526280+308375424
2288+302968549+298191630+293807358+289754723+286197486+283280345+280912885
2278+278817409+276763590+274744015+272907313+271324408+269909656+268613473
2268+267536946+266747107+266128044+265528557+264922071+264342297+263778273
2258+263183058+262519131+261807732+261159417+260686238+260362784+260060364
2248+259716185+259360185+258994371+258580296+258131205+257693848+257271709
2238+256863467+256515377+256261287+256077505+255931485+255808901+255701106
2228+255613418+255551106+255495827+255454291+255473935+255529111+255488724
2218+255288215+255025701+254818655+254683272+254602928+254599033+254679086
2208+254790089+254866162+254896718+254941222+255067272+255247605+255362108
2198+255348829+255292624+255303673+255385458+255485207+255590703+255704606
2188+255774262+255713064+255503650+255249218+255093899+255099886+255217838
2178+255344883+255407179+255424112+255466095+255517908+255474484+255316592
2168+255163452+255092612+255031449+254871395+254598038+254281773+254010578
2158+253856409+253862997+254016549+254212100+254285015+254131601+253815284
2148+253524119+253416787+253535425+253856203+254350314+254967901+255647183
2138+256403858+257348657+258543221+259891423+261263678+262694867+264356588
2128+266354649+268660105+271196832+273892652+276701174+279646383+282751234
2118+285897451+288883578+291581011+293876945+295547211+296378827+296361945
2108+295607225+294142392+291965319+289267132+286382417+283489484+280566424
2098+277656112+274941488+272532458+270380760+268425951+266700355+265278929
2088+264174162+263297630+262540268+261863680+261277403+260786295+260402347
2078+260156630+260076217+260152409+260303456+260396153+260356076+260231896
2068+260146507+260211771+260437020+260686992+260795388+260723159+260581754
2058+260534539+260646777+260787822+260778592+260654995+260631508+260800552
2048+261034671+261194588+261314170+261528336+261860917+262196758+262482656
2038+262772603+263025337+263089520+262942591+262748069+262685550+262859501
2028+263285758+263853333+264373110+264735201+265009793+265364763+265840413
2018+266239494+266351544+266231361+266109223+266121645+266264131+266483615
2008+266719708+266937820+267144317+267321751+267417536+267433200+267422031
1998+267410193+267465883+267762985+268345624+268916253+269123351+268979372
1988+268748719+268608720+268618912+268784319+268991262+269069839+269005793
1978+268968238+269109883+269404736+269697669+269932594+270270305+270841912
1968+271458075+271782970+271756481+271606789+271523356+271557412+271738912
1958+272069881+272466988+272843902+273171731+273421720+273596340+273824266
1948+274297102+275140573+276323214+277484185+277997048+277639830+276969830
1938+276619165+276648280+276814940+277013716+277257615+277535844+277820798
1928+278141936+278660495+279500346+280420559+281044150+281464453+281982412
1918+282327294+281974074+281148943+280647249+280861827+281521465+282113060
1908+282351931+282334946+282313277+282392455+282515828+282642650+282858017
1898+283313062+283993683+284624137+285068048+285619582+286435843+287004104
1888+286791997+286099332+285622241+285643052+286003290+286435002+286756414
1878+286980205+287258074+287708246+288499098+289974328+292210453+294357879
1868+295057835+294052011+292504175+291515713+291328260+291677294+292225517
1858+292716059+293066500+293358643+293691550+294167235+294940861+296159599
1848+297978785+300432319+302774679+303442998+302008292+300094437+299216429
1838+299413422+299904616+300302512+301112923+302955956+305391716+307029762
1828+307318130+307075776+306795643+306158754+305214522+304595168+304597261
1818+304956384+305407946+306059726+307172539+308662867+309936746+310442180
1808+310328843+310275315+310882694+312361972+314403747+316210374+317087867
1798+317251987+317736079+319425388+322118670+324183023+324011903+322324926
1788+321166580+321451997+322680961+324139377+325664703+327147859+328234663
1778+329048264+330488357+333349910+337242714+340318107+340997613+339873991
1768+338308140+337075094+336920924+338322037+340471042+341922012+342589233
1758+343336232+344225666+345161354+347027034+350561230+354756573+357462962
1748+357978553+357578426+357619808+358643784+360531527+362595641+364080169
1738+365481625+368365413+372890885+376066953+375197078+372280864+369932671
1728+368682708+368477720+369214838+370512290+372449445+375990263+381678199
1718+387801466+390647407+388953602+385469847+382850305+382055473+383244667
1708+386212729+390051558+393542725+396872002+401404610+406838113+410337687
1698+410757818+409598442+407253647+404353319+402971010+404022299+406719389
1688+410569713+416324113+423553469+427949064+426523383+422953502+421191036
1678+422295923+425552902+429166087+431905897+434588850+437943690+440370426
1668+440285466+439566844+440864331+444165608+447258364+448647090+449542048
1658+452203590+458139919+467630792+477792729+481976028+480884490+481509471
1648+485289213+488837957+489276584+488620960+489892850+493771928+499897495
1638+507892241+516524562+522782029+525273171+527028705+531155663+538264029
1628+547215326+556847947+567269189+578680712+589788665+599416620+608757166
1618+619691220+631487085+640847602+646964556+652024182+657431538+663113674
1608+668473953+672983263+676441420+679074139+681346911+683688310+686276695
1598+689021549+691799550+694543306+697185288+699910790+703241302+707394097
1588+711777272+715446181+717958392+719770337+721958493+725497561+730663146
1578+736735493+741735688+743967285+745142719+748293087+754223514+761553305
1568+768604677+775570404+783672997+793424822+805221716+820382407+838438793
1558+851789666+855537222+855504007+855761905+856704971+857895229+858457485
1548+857971129+857509822+858256684+860009474+861693225+861446444+856982084
1538+849976143+844464612+841039395+837802351+833787495+830544276+829591809
1528+830337847+831239051+831981589+833354325+834729531+833965238+830886379
1518+827665532+825607492+824581869+824200854+824683710+827004658+831830885
1508+837342348+838172934+832142038+825175625+821462451+820885577+822250970
1498+823955309+824046376+822291734+821143064+822714953+826290806+828589587
1488+826993129+822511476+817988029+815459074+815379742+816756115+818319358
1478+819839091+821842436+824315529+825847753+824470351+820706942+817753944
1468+817492065+819082416+820296418+819848287+818960947+819680564+822709738
1458+826319766+826465323+821953954+816680145+813703951+813408171+814500979
1448+815100157+814547302+813749176+813178959+812298275+811299485+811529864
1438+813478239+815306037+814825102+812727808+810968499+810109501+809680792
1428+809521578+809868142+810407409+810512957+810473359+811089488+811936476
1418+811607686+810107099+808675276+807720956+806727656+805204354+803361938
1408+802038614+801700285+801707834+801353447+801209880+802205239+804035027
1398+805409822+805501781+804454747+802977699+802003408+802056937+802696605
1388+802728035+801434014+799925878+800294334+803450261+808536925+814005290
1378+818749783+822302645+824642397+826259992+827951224+830013793+831965805
1368+833425285+834871588+836940540+839212969+840443922+840123574+839049707
1358+838220767+838126543+838769436+839596797+839859499+839545670+839453711
1348+840079241+841114541+842222721+843464243+844726971+845627419+846145069
1338+846575151+847000704+847537226+848650347+850580605+852793260+854478247
1328+855524869+856655148+858531602+861116145+864089319+867460733+871267376
1318+874933746+877631042+879271078+880626383+882576816+885451649+888862935
1308+892116448+894915106+897579735+900454293+903451967+906360838+908941812
1298+910710111+911524502+912231629+913618777+915001806+915030424+913444260
1288+911030460+908516397+906202792+904148869+902510274+901739599+902041693
1278+902855191+903386909+903448604+903396723+903515378+903823099+904272946
1268+905024406+906595678+909340670+912388441+913847166+913050481+911874772
1258+912737407+916096674+920482730+924089739+925952193+926196778+925517444
1248+924382705+922984989+921708331+920863127+920228126+919654203+919705329
1238+920879048+922561839+923367719+922428291+920134313+917703769+916242642
1228+916046988+916205858+915114354+912269374+909255916+908057080+908771138
1218+909821055+910286960+911057910+913210312+916279014+918989280+920755246
1208+921619597+921719860+921581235+922130658+923880497+926643125+929899589
1198+932705041+934161981+934687729+935696881+937661726+939395849+939643934
1188+938932140+939216871+941564104+944924674+947778233+950162111+953016013
1178+956420505+959442747+961040372+960941550+960143423+960005621+960703210
1168+961637216+963074598+965654062+968597316+970269400+970376869+970027698
1158+970149304+971240259+973854380+977810148+981250120+982057373+980390985
1148+978566138+978428541+979805807+981585703+983209749+984482565+985191065
1138+985725391+986908443+988996953+991453439+993417735+994336438+994571484
1128+995422589+998274706+1003639034+1010750317+1017497743+1021039762+1019707379
1118+1015109815+1011730784+1013152313+1018188674+1021822928+1020957136
1110+1017562046+1015581211+1017051190+1021376307+1026385492+1029713534
1101+1030223978+1028739312+1027168246+1026717850+1027457575+1029558163
1093+1033297347+1037233419+1038900769+1038545215+1038906053+1040825399
1084+1042600286+1043208248+1043075387+1042892978+1043726652+1046799678
1075+1051763158+1055498430+1054242634+1047669519+1039604327+1034481291
1067+1034284539+1038326571+1044078569+1048376372+1050008310+1051099883
1058+1054140792+1058925431+1063918764+1068472955+1072098630+1073741823
1050+1072937109+1070201725+1066195448+1061508121+1056828274+1053123953
1041+1051537034+1052523197+1054776616+1056092529+1055901748+1055438313
1033+1055351500+1055314648+1055768132+1057846691+1061312947+1063749531
1024+1062864318+1059233701+1055410313+1053023964+1052085017+1052172721
1015+1052738821+1052727498+1051374458+1048767612+1045594803+1043374530
1007+1043937816+1047986779+1054616922+1061756480+1066945192+1068972419
998+1069515460+1070629474+1070432173+1064885848+1054174487+1043493322
990+1037595424+1037466269+1040562628+1042927017+1042163478+1039131765
981+1036612006+1036603497+1038937209+1041836953+1043746829+1044555249
973+1044376134+1042187223+1037212282+1031166082+1027372547+1027240441
964+1028515384+1027275303+1022271608+1016386405+1012570017+1010231021
955+1007308424+1003752405+1000701751+998151796+995576862+993472156+992665039
945+992762352+992151439+989422506+984698876+979894884+977373821+977848853
935+979587025+980010657+978354356+976253768+975453446+975928615+976386766
925+975565993+973270094+970804824+969889072+970969802+973140870+975346869
915+976626204+975803784+972465928+967959158+964478353+963297566+963838617
905+964237543+963459593+962879287+964569489+968215889+971104379+971107192
895+968396926+964342885+960472762+958448212+959158908+961339789+962427382
885+961626922+960677749+960772179+960734915+959441374+957967963+957400628
875+956768098+955191335+953896010+954414003+956563659+958951313+960083169
865+958897441+955721887+952457805+950849406+951248057+953137893+956020138
855+958924823+959679851+956544581+950636458+945106397+942233418+942489944
845+945164455+948516379+950212552+949057980+945967317+942800684+940599558
835+939060952+937534013+935974064+935374199+937236174+941812051+946915872
825+949592923+949129694+946970705+944930508+944629306+946943254+950946100
815+954297132+955588477+955650035+955938609+956738383+957611312+958457545
805+958920842+957720634+954235162+950159984+947985142+948206737+949218840
795+949640001+949911350+951409398+954449003+957611998+959065301+958283645
785+956075451+953644426+951993890+951870568+953499486+955870806+957041163
776+956161714+954887320+955490410+958349801+961770489+963669110+963193048
766+960898521+957752133+954735518+952536794+951043413+949914919+949155086
756+949238261+950937522+954393003+958844461+962865287+964939249+964305826
746+961705431+959286073+958736649+959724527+961285506+963746520+967282295
736+969526312+967953942+964173652+961944938+961939928+961529061+959005390
726+955870395+954409748+954526002+954316210+952709939+950247345+948475821
716+949484425+954702166+962719456+968773137+968603012+963638845+959625911
706+959880790+961984535+961211938+956617051+951574376+948817856+947765468
696+946046306+943040946+940264935+937753549+933738761+928517520+925158734
686+925423838+927376056+927932411+926198082+922771012+918087116+913809215
676+912521096+914745143+917965099+918526463+914517921+909476276+911353004
666+919821308+926365050+926252434+922055718+919124063+918642511+917474282
656+913198165+906538032+900554351+898622240+901478681+905803523+906780009
646+902594960+895098132+887480180+882279732+880591040+882709403+888252777
636+895202239+899799596+898877256+893765612+888941032+886760494+885370738
626+880974182+872541633+863057176+855871708+851836607+851419632+856138184
616+865810952+877139333+886316000+891089178+888920856+879340871+869042093
606+865785148+871014213+879961118+884041169+876536930
##END=
