##TITLE=<SNM>
##JCAMP-DX=4.24
##DATA TYPE=INFRARED SPECTRUM
##DATE=3/5/2025
##SAMPLING PROCEDURE=Instrument type and / or accessory
##ORIGIN=Admin
##XUNITS=1/CM
##YUNITS=ABSORBANCE
##RESOLUTION=4
##FIRSTX=4497.3318
##LASTX=599.83466
##DELTAX=-1.4281778
##MAXY=1.7268481
##MINY=0.18147728
##XFACTOR=1
##YFACTOR=1.6082526e-09
##NPOINTS=2730
##FIRSTY=0.20330995
##XYDATA=(X++(Y..Y))
4497+126416676+126151657+125806945+125247850+124890659+124946668+125129531
4487+125147209+125047365+125106451+125694602+126976494+128371646+128784754
4477+127873221+126577403+125979857+126263768+126988186+127667297+127961771
4467+127812440+127463976+127213939+127201097+127364956+127476521+127429527
4457+127552479+128177989+128908087+128865799+127795929+126509488+126076319
4447+126740086+127717728+127975196+127124564+125648747+124386471+123768679
4437+123540805+123256458+122839643+122554462+122688367+123273460+123879605
4427+123898015+123272997+122594508+122307993+122251918+121994645+121254633
4417+120107998+119040453+118623296+119036673+119946872+120716080+120838319
4407+120375436+119801905+119341293+118851253+118436773+118515048+119047606
4397+119343072+118926368+118140381+117627595+117620433+117944454+118322623
4387+118473492+118179843+117434976+116453433+115501437+114740726+114212652
4377+114028159+114450171+115472853+116457676+116718795+116358666+116008608
4367+115947503+115894393+115479070+114712365+114100346+114205823+114962985
4357+115695844+115981850+116078942+116277816+116372684+116125325+115807808
4347+115798292+115917705+115710391+115217739+114892902+114817416+114611733
4337+114122379+113623315+113301887+113056594+112851513+112841275+113108221
4327+113563923+114048681+114354802+114319723+114077117+114013964+114304806
4317+114722038+115016308+115127614+114948207+114355265+113592850+113195705
4307+113445641+114169345+114982007+115549284+115838727+116124436+116441193
4297+116306983+115474159+114540852+114261527+114695010+115457602+116274554
4287+116908004+117049960+116642253+116049256+115706018+115733026+115982591
4277+116299061+116573967+116675525+116601207+116622073+116995933+117615707
4267+118139455+118356081+118253086+117857452+117236714+116645301+116430399
4257+116709548+117358212+118268596+119253095+119857896+119861112+119738808
4247+119991328+120311597+120090746+119408560+118891048+118852652+119060393
4237+119144300+118945149+118574522+118233934+117988326+117823142+117828988
4227+118080610+118406957+118542668+118525962+118793094+119733517+121085094
4217+121976800+121888129+121288053+120918409+120853125+120755263+120594489
4207+120595573+120818101+121115791+121323494+121380458+121365994+121413934
4197+121595351+121882700+122144421+122241393+122217377+122238734+122339365
4187+122511943+122928036+123659523+124337188+124563357+124534764+124768512
4177+125297226+125621016+125462206+125125899+125068055+125433521+125949911
4167+126060587+125404195+124340273+123671151+123774378+124343739+124893197
4157+125112723+124851123+124195297+123585261+123528973+124077153+124732210
4147+125012638+124955980+124898460+124961678+124979320+124794548+124445593
4137+124128428+124086206+124441378+125018012+125457286+125639880+125786988
4127+126031011+126205100+126186995+126117143+126153269+126243477+126185448
4117+125860009+125508571+125630930+126345323+127070139+127168436+126699216
4107+126271246+126340523+126937755+127979514+129344442+130523367+130816729
4097+130148617+129132875+128242940+127537636+127080424+126979718+127173773
4087+127545299+127959630+128138073+127885544+127307334+126541657+125662229
4077+125038285+125227782+126243940+127390001+128004438+127987417+127534894
4067+126841144+126184067+125835233+125744191+125622063+125351114+125142039
4057+125309744+125853801+126268911+126103893+125686967+125709325+126203302
4047+126678628+127046846+127573743+128128734+128266696+127939182+127585131
4037+127580850+127900433+128277055+128568731+128896672+129307130+129430287
4027+128894670+128069528+127814302+128344720+128931797+128921911+128496136
4017+128182260+128113520+128087938+128024887+127999546+127924941+127557714
4007+126914137+126391122+126366967+126924468+127929277+129038563+129708741
3997+129619246+129112834+128875760+129145467+129541824+129712493+129831767
3987+130298727+131130670+131819240+131774062+130984387+130241049+130448947
3977+131632505+132864446+133241725+132681861+131729171+130915953+130445760
3967+130351456+130803795+132020041+133709760+134921688+134871210+133805648
3957+132691275+132215912+132406993+133065627+134130939+135370061+136070518
3947+135766557+135185975+135528629+136757606+137481839+136874934+135738455
3937+135281613+135956656+137593348+139626065+140946500+140645299+139319425
3927+138537978+138900933+139492068+139451383+139308288+139982858+141167268
3917+141421548+139859553+137292546+135326217+134832962+135664424+137597184
3907+140983451+145988222+151443794+155262052+156325947+154892213+151523254
3897+147334833+144387915+144401433+147046177+149498970+149310409+148121579
3887+148927950+151441848+153076679+153499609+154089307+153842486+151332562
3878+148774153+149115937+152186317+156172159+160055006+162492724+161636616
3868+158861359+157551764+157922900+157116307+153993975+150899218+150418036
3858+153660902+160969338+170943654+176727917+171761032+161514998+153482366
3848+149973694+150468218+153423067+157343403+161578763+165977510+169598442
3838+170703771+168996911+166149995+163351722+160644566+158309676+157113675
3828+157159150+158143454+160930609+166613675+172943765+174900903+172442264
3818+169991167+167946637+163740426+158390675+155419528+156490538+160928830
3808+166029674+169017370+170933777+174465779+178323832+178702288+176291070
3798+174362970+172895362+170663244+168630352+168426809+170217206+173362247
3788+177459349+182003211+186124514+189834246+194547406+200917208+207146916
3778+211273537+214275724+218822662+226536860+236826719+246764973+253582314
3768+258290527+263619227+270052812+277326216+286798882+299410326+313115980
3758+325051788+335938564+349349578+367835308+390203626+410695433+425283454
3748+437930477+452928845+467790641+475552815+476776075+479356758+488213588
3738+503732970+522256911+537081163+543557702+543318765+541339705+541123302
3728+543442922+546934694+549261801+549116000+546751757+542733708+538005668
3718+534585759+534528684+538423465+544754426+549692607+549642684+545631566
3708+541423724+539825511+542149986+547549289+552643018+554754129+555224665
3698+556637718+559967344+565355195+573132194+583141829+593065963+598521859
3688+597596687+593427575+589338516+586446366+585493249+587633045+593682448
3678+602743488+610096649+609875131+604476310+600453629+597902595+592776029
3668+584949664+577991544+574141311+573448998+575128599+578917792+584709467
3658+590722438+594010852+595064332+598401854+606547543+616018374+619112622
3648+613994396+607052138+602094500+598718731+596536833+596192418+597766393
3638+599995657+601603654+603048581+606569446+614266540+625202904+633495840
3628+633312458+627876242+623861047+623850002+627579377+633423569+638618439
3618+641545279+643706572+646551950+648987129+650177552+651800115+654615622
3608+655867790+653703458+650859266+650987648+655034271+661730142+668978455
3598+674450992+676838287+677059990+677187408+678395547+680405405+681847848
3588+681098905+678086823+674463815+671501544+670114397+671259383+674070442
3578+675808638+675221431+673686705+672634299+672740963+675327947+681283991
3568+687708866+688793515+683327798+676436241+672657278+672349443+673384429
3558+674351889+675625330+677354112+677941763+675824574+671938650+668494206
3548+666253898+664800040+664132780+664159835+663842809+662501767+660870458
3538+659841253+659258124+658914042+659582710+661750155+664131669+664972674
3528+664336101+663314087+661836954+659644900+658105726+658647124+660581376
3518+662077929+662014405+660175031+657369087+655454774+655499915+656596498
3508+657812716+659436020+660950882+660467745+657749711+655132781+654390360
3498+654829987+654742076+653808343+653784920+656257308+659853780+661128852
3488+658840290+655384430+653328245+652891732+652850148+652275098+651422752
3478+651245301+651887433+652179776+651243522+649817757+649064143+648998470
3468+649099426+649416674+649974305+649683074+647330321+643766983+641534531
3458+641817609+643079042+643315052+642292370+640968376+640109730+639840810
3448+639934057+640111805+640187263+640281919+640664618+641310234+642002621
3438+642702866+643179406+642360267+639708203+637014926+636533568+637638379
3428+637382356+634506439+630958741+629395921+630988464+635052729+639370200
3418+641449808+640425644+637493023+634308900+631738965+630210835+629932872
3408+630172439+629514890+627723696+626210909+626008626+626572928+627010479
3398+627329581+627736222+627742078+626965486+626035830+625693898+625612807
3388+625361454+625364271+625715468+625681149+625172884+624867792+624651944
3378+623835252+622791445+622209057+621640270+621029752+621991578+625308530
3368+628840588+629864827+628604950+627450402+627704423+628554397+628584640
3358+627570705+626547801+626494876+627519337+629178740+630864233+631724288
3348+631025823+629101725+627288961+626510146+626527861+626836289+627483091
3338+628575449+629478643+629231812+627733702+625963633+624945992+624607025
3328+623869941+622022117+619475271+617020598+615179519+614515261+615604802
3318+618090904+620341256+620868719+620004031+619394847+619824504+620437024
3308+620354709+619865272+619461151+618819760+617446993+615734444+614646608
3298+614604840+615161396+615845074+616913823+618678184+620582824+621684855
3288+621768578+621589458+621889658+622408523+622234333+621218878+620359490
3278+620187339+619935319+619018004+618034607+617664398+617885100+618439989
3268+618873166+618513519+617304528+616070780+615552694+615661210+616111362
3258+617282143+619390029+621132191+620746637+618607359+617018263+617130041
3248+617709539+617199792+615713356+614440100+614034608+614358045+615077599
3238+615669623+615441434+614418271+613499473+613068482+612446215+611097650
3228+609376725+607968416+607178704+606656838+605707687+604192862+602979683
3218+602858973+603482833+604061960+604151130+603305307+601101542+597918531
3208+594910304+593017450+592663473+594118850+597003699+599521341+599776029
3198+598201683+597026418+597191454+597319502+595823616+593110178+591135047
3188+591021564+591866942+592155986+591467639+590031941+587766023+584930837
3178+582564519+581247159+580383583+579307718+578218955+577480797+576833031
3168+576062629+575717214+576206947+576764949+576348894+575198979+574360865
3158+574037168+573505258+572315094+570689047+568957597+567356715+566244529
3148+565779293+565383177+564251089+562523678+561147094+560443625+559671629
3138+558169665+556231484+554673075+553961119+553903821+554002924+553917423
3128+553615295+553192421+552654099+551929764+551062446+550299974+549901264
3118+549924984+550192532+550395816+550374543+550239453+549996958+549297751
3108+547897892+546085869+544401005+543233078+542728260+542742307+542911531
3098+542858273+542225370+540771586+538672631+536465530+534719144+533891481
3088+533974166+534149357+533625081+532823843+532765360+533463974+533937993
3078+533649431+533077346+532892074+533160920+533446703+533317246+532474944
3068+530636793+527917758+525343635+524279296+525041989+526451596+527089095
3058+526728669+526035207+525213474+523815097+521784151+519884626+518925134
3048+518886775+518876250+518000481+516382032+515012711+514500110+514462307
3038+514221184+513530130+512578126+511692239+511001593+510272552+509226632
3028+507926432+506660292+505677674+505129642+504907642+504551516+503715996
3018+502604774+501679416+501203358+501148766+501113965+500404900+498804018
3008+497067675+496050071+495648952+495198726+494468350+493651398+492796977
2998+491816175+490811913+490043586+489587911+489135165+488237863+486872620
2988+485591544+484992255+485185866+485726597+485861613+485033728+483396340
2978+481721075+480657292+480236048+480121157+480093138+480150621+480275074
2968+480230118+479595473+478078869+475891782+473682272+471931698+470597586
2958+469519497+468880293+468950377+469524871+469899195+469507823+468511306
2948+467500114+466638910+465571198+464222855+463073274+462485845+462339600
2938+462334152+462175305+461628459+460759472+459908016+459319068+459007156
2928+458803613+458399825+457673415+456908535+456256656+455308765+453806097
2918+452352906+451751616+451953788+452133500+451597365+450406608+449199396
2908+448492110+448209144+447931366+447424139+446720040+445901272+445020351
2898+444125718+443304393+442684424+442261512+441803688+441176530+440592918
2888+440198063+439660890+438562380+436998782+435520389+434611042+434318477
2878+434249616+433934443+433268962+432471097+431684573+430935407+430305061
2868+429777598+429092475+428121420+427220671+426836526+426866250+426733013
2858+426099405+425265405+424782305+424804802+424943190+424703623+423916246
2848+422711962+421313660+420003193+419075353+418612563+418416284+418252434
2838+418020131+417660780+417154257+416653590+416313845+415885412+414849202
2828+413150329+411453717+410489555+410394974+410722044+410834415+410340160
2818+409380705+408420843+407653554+406857801+405921140+405128945+404757883
2808+404635876+404280639+403394270+402145882+400967653+400114603+399495894
2798+398938300+398475250+398236795+398136284+397897606+397407057+396825632
2788+396275228+395595776+394559714+393254733+392079246+391295539+390754771
2778+390200624+389615641+389021134+388218969+387072205+385764778+384524988
2768+383396495+382411283+381650591+381079395+380595591+380161858+379707814
2758+379120830+378444898+377786348+377017428+375945973+374745395+373804620
2748+373194361+372635656+371943602+371211113+370570279+369982220+369279752
2738+368357063+367330749+366463504+365853060+365280493+364498231+363585549
2728+362861807+362472770+362203776+361735797+360991375+360143514+359355877
2718+358640512+357929334+357132210+356148443+354979998+353846464+353056197
2708+352707409+352551490+352219973+351618683+350979368+350429520+349762038
2698+348845130+347950089+347365070+346957279+346411805+345677834+344935265
2688+344290798+343693289+343091110+342559051+342197329+341923479+341485780
2678+340713488+339653337+338492414+337484002+336876597+336720678+336752885
2668+336600375+336089887+335303215+334456687+333797396+333419551+333084217
2658+332455650+331586144+330871557+330499049+330295691+330125504+330038816
2648+329971290+329634473+328867221+327943160+327314667+327014096+326545747
2638+325551714+324323562+323383454+322842130+322491749+322281386+322327973
2628+322555124+322644295+322365220+321769452+321050603+320378377+319877228
2618+319595744+319428521+319154450+318614757+317857660+317093446+316494047
2608+316063834+315716640+315402282+315099599+314772529+314417848+314120613
2598+314006129+314122874+314338536+314341538+313847987+312903542+311922889
2588+311325713+311149966+311084700+310842909+310418256+309993362+309698832
2578+309508576+309330790+309144852+309010707+308941068+308823841+308548046
2568+308187139+307945997+307930246+308092465+308391701+308832254+309349210
2558+309818578+310162567+310328048+310238395+309875894+309350933+308809276
2548+308292005+307737173+307152802+306717771+306578548+306590167+306434471
2538+305995938+305487599+305196275+305179931+305240694+305192810+305087962
2528+305072137+305099210+304984004+304721681+304531517+304537984+304590872
2518+304490749+304247643+303997272+303800845+303667664+303625487+303635160
2508+303579012+303417830+303204836+302944070+302600044+302201538+301787670
2498+301344578+300910678+300624579+300556738+300570710+300416682+299946498
2488+299269936+298709747+298502313+298520306+298412438+298015062+297469291
2478+296971422+296615685+296432822+296355715+296194942+295842540+295450223
2468+295271808+295392703+295690272+295966641+296038411+295760856+295082719
2458+294140887+293254945+292716845+292556739+292562576+292519769+292373857
2448+292189030+292034983+291927486+291824287+291646539+291341855+290966475
2438+290669091+290540709+290516471+290460082+290292692+290026274+289762172
2428+289644742+289684342+289665756+289404304+289037022+288869114+288987711
2418+289213065+289373580+289462620+289571248+289780480+290066820+290274143
2408+290262005+290079476+289893408+289792748+289777034+289861979+290062520
2398+290321934+290561390+290758929+290887292+290830217+290505390+290047418
2388+289693070+289435139+288919314+287718791+285628250+282733005+279315616
2378+275673225+271952726+268182713+264428322+260795530+257307983+253943629
2368+250853458+248448392+247110852+246820325+247305871+248594878+251065914
2358+254883218+259784170+265679508+273067858+282080551+291226500+298089167
2348+301167793+300814558+298904192+297139812+295438252+292868224+289306831
2338+285242659+281019492+276857588+273068414+269971239+267725408+266272551
2328+265433936+265033503+264903898+264921206+265151118+265822028+267007837
2318+268429859+269703616+270727650+271702615+272809798+274051514+275408604
2308+276916090+278483135+279822602+280686752+281104642+281347618+281709341
2298+282305109+283010838+283599305+283966846+284197444+284415404+284682879
2288+285036207+285462102+285805609+285866649+285638238+285318580+285070674
2278+284905675+284801569+284754019+284675263+284440143+284101046+283865501
2268+283808648+283814596+283823991+283907214+284065319+284169796+284128491
2258+283963269+283717365+283420333+283166090+283084758+283152414+283166164
2248+283026015+282887830+282919110+283075789+283223461+283322787+283426875
2238+283588446+283811150+284080422+284411513+284806443+285224314+285680951
2228+286264674+286966179+287652303+288267416+288897355+289616908+290420555
2218+291318302+292379454+293623579+294962398+296349007+297874431+299587833
2208+301378934+303163198+304996438+306936546+308971403+311075472+313214676
2198+315337498+317398390+319368444+321281090+323243175+325287130+327289947
2188+329145591+330902911+332647259+334324117+335767228+336907729+337858548
2178+338721382+339446310+339960986+340253403+340288686+340033849+339560979
2168+339003459+338417846+337725829+336831159+335784572+334684469+333465990
2158+332034999+330523732+329203408+328236059+327549676+326909990+326234577
2148+325687471+325383046+325647259+327633435+332531626+340003199+348469510
2138+356870443+365094406+373096148+380710779+387984220+395089883+402208257
2128+409527655+417121124+424892823+432562158+439604852+445499560+450047406
2118+453267293+455288937+456470391+457250244+457960088+459156626+461962200
2108+467636279+476773184+489102254+503804722+519404194+533541025+543798974
2098+548734264+547886921+541921945+532726223+522069267+510624527+498560226
2088+485789194+471814694+456415392+440000783+423183313+406847424+392076059
2078+379353245+368528844+359471251+351984075+345635546+340242322+335897722
2068+332498271+329788168+327504016+325297990+323060757+321081067+319533777
2058+318341686+317482595+316851100+316235615+315772084+315874708+316790874
2048+318640922+321498679+325377190+330661194+338251143+348894793+362860510
2038+380227939+400773523+423647956+447515014+470642320+490926433+506514120
2028+516424504+520693832+520378696+516958712+511504113+504703765+497044586
2018+488602106+479324255+469474578+459366915+449110411+438820922+428614082
2008+418407685+408037699+397502491+387047559+377110750+368109009+360182947
1998+353219787+347152002+342045005+337737170+333662417+329420701+325273714
1988+321663641+318668793+316215639+314284463+312724015+311313668+310017693
1978+308896056+307939604+307131324+306468216+305960266+305711748+305770510
1968+305852750+305530868+304754740+303912938+303352009+303078956+302957931
1958+302942958+302958061+302792191+302357031+301871614+301614072+301637421
1948+301855159+302322118+303187362+304147632+304290356+303137977+301474072
1938+300380695+300044823+299973053+299816504+299616148+299524105+299565188
1928+299761930+300398762+301677337+303089686+303954114+304535372+305412123
1918+306026699+305371410+303844337+302833774+302966622+303751516+304361218
1908+304369150+303963639+303599729+303490305+303528052+303593855+303762430
1898+304188529+304798028+305268545+305616277+306390071+307665514+308430561
1888+307869705+306603565+305678152+305305162+305156508+305026050+304894815
1878+304832440+304925280+305227796+306066948+308180042+311769935+315232725
1868+315927002+313356659+309868427+307610347+306852842+306823601+306869835
1858+306787132+306668720+306680413+306880249+307335775+308279831+309970532
1848+312612904+316143295+319297101+319694847+316928448+313674686+312143740
1838+312219271+312682951+313048046+314208301+317157044+321063574+323453538
1828+323376375+322376894+321401800+319881824+317863478+316455651+316192105
1818+316558164+316983744+317611199+318930782+320837683+322382379+322792356
1808+322430115+322303697+323206225+325433228+328490747+330990821+331761113
1798+331342204+331652596+334185840+338456502+341472030+340426778+336812109
1788+334326489+334467472+336243471+338326934+340340832+342073024+343081770
1778+343807995+345828416+350403502+356829193+361844648+362478589+359759257
1768+356414621+354030995+353708595+355945790+359284608+361337828+362005384
1758+362800062+363867663+364944195+367377150+372515316+379017910+383401869
1748+384127983+382917213+381891900+382089402+383651665+385717042+386955534
1738+387892196+391064347+397125647+401697806+400258513+395431184+391100631
1728+388163636+386861101+387418287+389362991+392633023+398533400+407858542
1718+417787235+422154035+419007567+413064346+408662078+407388488+409553487
1708+414678385+420943376+426093512+430573462+437159815+446003117+452431810
1698+453608261+451593844+447364395+442154404+439387041+440741610+445152550
1688+451731566+461536768+473998186+481967906+479985436+474176638+471397601
1678+473544921+479438776+485889446+490550738+494881700+500566304+505116670
1668+505309169+503764917+505156956+509914572+514406752+515906085+516420650
1658+519805573+528572269+543286484+559166626+564478759+560535353+559888106
1648+565026198+569566039+567565928+562445589+560046212+562080049+568403672
1638+578433469+588980796+593132637+589044690+584035685+583546544+587593056
1628+593738819+600227849+607168809+614292446+619976272+624551729+631213059
1618+641567590+651494800+654384579+651064736+647015592+644533123+642716060
1608+640238260+637346999+635699382+636738816+640566998+646152128+652321796
1598+658345515+663675068+667748450+670436316+672228029+673581746+674520816
1588+675017740+675241445+675355150+675510142+676135819+678109134+682440243
1578+689118621+695404367+697515329+697235217+699990312+707672619+717358557
1568+725036119+731192964+738954063+749725391+764295622+785272791+813120910
1558+835565501+842289613+843306735+846829157+853130543+860016837+865370776
1548+868634063+871784904+877341571+885803433+895104078+899428145+891924180
1538+877811884+868005792+864181687+861826562+857276121+852315333+850536888
1528+852284571+855554603+859476254+864910988+870883414+873755773+872428740
1518+869504124+866411025+863419031+862006608+864047746+870274638+880048560
1508+890043371+892104226+882556158+871044484+864854580+863874816+865646145
1498+867245433+866309402+863456463+862167530+864683429+869734352+873391085
1488+872686616+868632358+864095926+860842795+859011648+858297246+859382192
1478+863314591+869623908+876142401+880266261+879887416+875226828+869700625
1468+866703294+867233129+869687505+871311106+871848279+873955832+879443861
1458+886069092+887265445+880602337+871818704+865553416+862714635+862207927
1448+861794837+859776454+856591813+853825747+852493822+853058124+855827674
1438+859966655+862394866+860743099+857274342+855036480+853816556+851855248
1428+849176870+847396350+847074802+847751105+849706779+853202517+855857249
1418+854000753+848450090+843469733+841083549+840434821+839701665+838025214
1408+836312591+835616572+835284721+834290799+833542893+834464471+836525474
1398+838039076+838292948+837238245+834734799+831751625+830138105+830404431
1388+830999346+830134473+828360698+828085478+830636141+835170645+840187471
1378+845348985+851127356+856881562+860686394+861871555+862008980+862504866
1368+863624204+865816555+869532143+873627539+875858360+875546819+874150258
1358+872961466+872116161+871425553+870937969+870768374+870921736+871479292
1348+872636657+874308067+876187097+878478995+881809957+885960872+889418362
1338+890981848+891333564+892039590+893671197+895645624+897379669+899066423
1328+901411838+904878519+909112304+913122978+916347423+919264627+922610561
1318+926402645+930079095+933153886+935396047+936871030+938115786+939853389
1308+942260845+944718632+946448822+947313992+947827593+948513087+949459718
1298+950404348+950954863+950621456+948915874+945800390+942078798+938878220
1288+936601517+934959608+933939669+933716854+933714630+932931367+931298649
1278+929674826+928369511+926695951+924308508+922129352+921280860+921634133
1268+922223785+922718337+923477065+924323110+924430589+923692245+923181460
1258+923769111+924925141+925218670+923486849+919529471+914331265+909455718
1248+905645697+902238537+898319258+893986370+890049745+887042185+884961687
1238+883459204+881943601+880041148+878297838+877855320+879021728+880736278
1228+881911876+882666305+883669492+885017650+886351502+887578617+888981997
1218+890722787+892518058+894008903+895232978+896383671+897444230+898629835
1208+900684983+903885264+907195768+909318738+910297613+911364324+913543258
1198+916862730+920498116+923358764+924996671+926128833+927572832+928856651
1188+929118307+929219708+931288124+935898901+941143137+944902310+946894897
1178+948012679+948842640+949489812+950193467+951491443+953833152+957099255
1168+960494259+963115562+964740645+966012604+967885853+970963015+975108593
1158+979371954+982377290+983149805+981871842+979970575+979236678+980336449
1148+982219111+983537175+984360687+985879847+988886815+992956565+996662813
1138+998571122+998799348+999148322+1000932770+1003305686+1004738196+1005579572
1128+1007340375+1010036691+1012419020+1014323178+1016575865+1018956340
1120+1020291749+1019971239+1018664739+1018365724+1020755984+1024982728
1111+1028796974+1032232449+1037274329+1043649393+1048034390+1047801346
1103+1043826252+1039366316+1037263062+1037730559+1038291822+1036919944
1094+1034925356+1034980355+1037256836+1039694016+1041429988+1043142389
1085+1044724999+1045508336+1045609589+1045446146+1045372912+1046375433
1077+1048989694+1051640424+1052288782+1051049141+1049653914+1049690531
1068+1051992584+1055803347+1058673112+1058951297+1057599581+1056624635
1060+1056648355+1056136532+1053723442+1050940253+1050592614+1052825362
1051+1054852639+1055050104+1054970273+1056826696+1061021566+1066248828
1043+1070865832+1073597653+1073741823+1072005332+1069993473+1067822470
1034+1063979464+1058720328+1055562964+1057359051+1062805866+1067949814
1025+1069771917+1068653542+1067480983+1067821951+1068734189+1069448146
1017+1070706392+1072593502+1073393887+1071825879+1068460599+1064180042
1008+1059594170+1056222886+1055910826+1058229260+1060010003+1058635383
1000+1054742417+1050835443+1048698907+1048733301+1050535539+1053126377
991+1054910307+1054451557+1051796009+1048248385+1044628120+1040809204
983+1036872431+1033437475+1030729818+1028499294+1026846044+1025764360
974+1024266028+1021203468+1016542732+1011402564+1007402416+1005578979
965+1005082055+1003636276+999956712+994710919+989162851+984414871+981136908
955+978595214+975164927+970716332+966774223+964312508+963348235+963976654
945+965855685+967263141+966441853+963708179+960933441+959140986+957716333
935+955965981+954332596+953668301+954270925+955957160+958095030+959593140
925+959890449+959620343+959621307+959775039+959378182+958273742+957261141
915+957127051+957238311+955985179+953101553+950245649+948800538+948589953
905+948733679+948464833+947526800+946394490+945653848+945412502+945425770
895+945263069+944303689+942584691+941357873+941352314+941392563+940366842
885+939246466+939287085+939765330+939377145+938499301+938284565+938641099
875+938385002+937080503+935788086+935909130+937791199+940391377+941894305
865+940810916+937260772+933277894+931225193+931759030+933523243+934805579
855+935182275+935510346+936688390+938366546+939087545+938378035+937619974
845+937711442+937292422+934754657+930753397+927433999+926337045+927591956
835+930233421+933191615+936186500+939393749+942297314+943931737+944300057
825+944192652+943909352+943077241+941933220+941774595+943390413+945594697
815+946743982+947460534+949784824+953843900+957255507+958286713+957469798
805+955658517+953144545+950729602+949349274+948622419+947647992+946845309
795+947275225+948880591+950931218+953094437+954843752+955446820+955304355
785+955422285+955623605+955092584+953727304+951572905+948901272+947291903
776+948028023+949881258+951041217+951840787+953112375+954021500+953356538
766+951293904+949178271+948510196+950164484+953849237+958042625+960650734
756+960281673+957495074+954752876+954684608+957947821+962165150+963402346
746+960463424+956632129+955306504+956541995+959184275+962676603+964966277
736+963103850+958080872+954584542+955023649+957565195+959753543+960838414
726+960387076+957710107+953398788+949230009+946635020+946000820+946441336
716+946232085+944352832+941660816+940024392+940497151+942593363+944438667
706+944018684+941072275+937019426+933093475+929854650+928006677+927782824
696+927907055+926956644+925276931+924000377+922738128+920153961+916684537
686+914215780+913051375+911799651+910341716+910366548+912392343+914160336
676+913089326+909187910+903549485+896161672+888096888+884637693+889680462
666+896529102+898008532+894273079+889148478+885794539+884159449+882280048
656+879611009+878354765+880635322+884854430+886809660+885180129+883122609
646+882714115+881240169+875661117+868345945+864511166+865603302+868449940
636+869725605+868989707+867878892+867639474+867122166+864388566+860073393
626+856971029+855894904+855093926+853585365+851591443+849540817+848283608
616+848627245+849838200+849330084+845105490+838187545+831361217+826368333
606+823790022+825156636+833215416+847476922+859629097
##END=
