##TITLE=<SNM>
##JCAMP-DX=4.24
##DATA TYPE=INFRARED SPECTRUM
##DATE=3/5/2025
##SAMPLING PROCEDURE=Instrument type and / or accessory
##ORIGIN=Admin
##XUNITS=1/CM
##YUNITS=ABSORBANCE
##RESOLUTION=4
##FIRSTX=4497.3318
##LASTX=599.83466
##DELTAX=-1.4281778
##MAXY=1.710925
##MINY=0.1863654
##XFACTOR=1
##YFACTOR=1.5934231e-09
##NPOINTS=2730
##FIRSTY=0.20557742
##XYDATA=(X++(Y..Y))
4497+129016219+129168969+129574494+129747444+129391333+128804095+128471091
4487+128440175+128411100+128379903+128720528+129495211+130137315+130109531
4477+129589046+129242220+129477106+130103032+130620460+130613951+129912164
4467+128685834+127502436+127060383+127729233+129260260+130798487+131404728
4457+130924838+130089313+129495819+128938067+128086794+127227451+126841648
4447+126990638+127473287+128059768+128348033+127913208+126839600+125789043
4437+125421148+125881203+126669979+126937886+126317908+125438683+125095879
4427+125184663+125058425+124478154+123589007+122558014+121783443+121776813
4417+122409238+122855687+122511789+121542049+120532209+119938425+119848612
4407+120177061+120941204+122010614+122738576+122538534+121783827+121389916
4397+121599880+121818718+121535961+120875004+120248321+119870476+119634169
4387+119271156+118677100+118119919+117983786+118295403+118728151+119033511
4377+119191124+119174796+118895293+118448377+118165227+118306812+118806901
4367+119339591+119602064+119520873+119222574+118890113+118680944+118628846
4357+118498530+118003275+117360591+117222233+117849094+118836948+119745715
4347+120388296+120494840+119877892+118971743+118489076+118561747+118786777
4337+118958445+119225342+119619178+119838877+119526241+118634644+117570050
4327+116959143+117151385+117928266+118766755+119312555+119506995+119446406
4317+119334962+119451297+119881090+120312277+120331120+119917636+119489648
4307+119420801+119628043+119728546+119553043+119361362+119499439+119998996
4297+120603787+121070865+121299654+121245199+120890827+120336525+119824204
4287+119573626+119646064+120044136+120762634+121550755+121898946+121610363
4277+121107215+120904742+121144285+121735039+122486707+123078238+123312806
4267+123339953+123417329+123672489+124123913+124629707+124896052+124818022
4257+124690596+124862423+125263161+125440815+125148257+124765045+124788639
4247+125034625+124899110+124345660+123987304+124248870+125011704+125955848
4237+126744278+126997699+126536774+125660541+124903113+124468513+124166435
4227+124007812+124436455+125640220+127071081+128085242+128650877+128999115
4217+129091939+128948372+128910171+129068233+128990427+128429635+127693285
4207+127098267+126767994+126957814+127760281+128612068+128899117+128808415
4197+128907571+129203514+129205786+128720454+128148870+127979081+128222945
4187+128569340+128937496+129443019+129874459+129846048+129534619+129624676
4177+130395720+131367340+131951810+132093198+132150131+132399287+132789214
4167+133100522+133207131+133103888+132810573+132400998+132093805+132141920
4157+132530762+132897862+132893102+132593175+132429783+132689955+133198181
4147+133552600+133608373+133608579+133802037+134074675+134117328+133883396
4137+133685459+133841267+134361687+134985060+135477874+135887019+136387576
4127+136877856+136936594+136264611+135096616+134149695+134080997+134872878
4117+135846049+136441601+136785883+137267175+137832465+138082809+137897992
4107+137552916+137265969+137065320+137102090+137547108+138105562+138229574
4097+137867057+137433551+137123534+136851933+136682939+136747784+136947526
4087+137110769+137207802+137243815+137230760+137304704+137611485+138128024
4077+138757999+139420041+139923367+140033324+139762088+139331107+138863645
4067+138433057+138288228+138633529+139300443+139943071+140391689+140629371
4057+140676671+140625340+140593806+140616475+140655742+140696768+140832741
4047+141231281+141850998+142278434+142160173+141685931+141327445+141281575
4037+141392551+141439964+141380272+141393477+141643073+141981491+142151008
4027+142251053+142654577+143471931+144382849+144991343+145198445+145251423
4017+145412271+145558821+145342340+144752876+144150760+143705293+143250456
4007+142772997+142618190+143109657+144220074+145577917+146616345+146869766
3997+146363523+145646213+145317090+145551929+146051018+146348186+146273073
3987+146182587+146519967+147123336+147376692+147135119+146973121+147353182
3977+148066358+148648659+148886303+148772802+148359262+147819007+147455573
3967+147540056+148106103+148819944+149186997+149094032+148905324+148832868
3957+148685916+148425846+148376478+148751041+149494180+150465772+151335692
3947+151743770+151875049+152193913+152529488+152189087+151070282+149974164
3937+149863328+151205255+153574415+155635682+156013442+154648520+152961086
3927+152379534+153030578+153925879+154404722+154986395+156315772+157858806
3917+158247275+156893799+154762928+153248584+152847183+153216658+154182180
3907+156136893+159246444+162696554+165237440+166291017+165713346+163289974
3897+159738940+157077138+156939276+158932677+160755130+160847543+160608645
3887+161743077+163395704+163895831+163935052+164725773+164909009+163151981
3878+161399796+161921357+164324156+167183709+169909214+171547009+170777180
3868+168774633+167956699+168256868+167671304+165677510+163888630+163750225
3858+165889513+170773140+177589046+181448741+177876816+170909282+165642816
3848+163468198+164200957+167115385+170994438+174782574+178119660+180472258
3838+180690190+178718765+176128671+173977807+172187542+170852704+170645920
3828+171705520+173413621+175779592+179386736+183063156+184111347+182893685
3818+182023494+181067679+178071891+174228693+172310012+173342754+176709204
3808+180633612+183318569+185395481+188392821+190916331+190290424+187767699
3798+186062217+184834643+182791098+180603388+179717972+180383006+182048370
3788+184360251+187069953+189713351+192240153+195287823+198887654+201833111
3778+203470812+204988270+207905952+212704573+218796118+224797531+229740354
3768+234299535+239231641+244090561+249121683+255985133+265126256+274320609
3758+281510526+288059741+297013232+309846936+324916436+337817546+346400693
3748+353904994+363658632+374761006+382803102+386913496+391434765+399717312
3738+412411825+428130368+443593798+455223680+462203502+466771717+471343634
3728+476516565+481250827+484419658+486491576+488834355+491772425+494605793
3718+497165793+500610834+506877087+517265367+530363835+541836534+549015622
3708+553212537+557070698+562832522+570776987+578135028+582134998+584035369
3698+586762015+591190628+596624283+602915523+610562717+618149201+621399504
3688+618372294+612846881+609373784+609674721+613376372+619072959+625020170
3678+629444293+630186068+627018097+624526402+625568888+627479583+626882049
3668+624556813+623654789+625215993+627744983+629626165+631464927+635096815
3658+640508736+645656492+650188459+656508091+665689632+674605586+677306572
3648+672818819+667166522+664753942+665607712+667811937+669836685+671565172
3638+673630544+676211828+679060047+682829516+689054584+697231607+702213127
3628+699275806+693032708+690746787+693973785+699376879+702174224+700948183
3618+699587778+701538610+704976807+706524769+706464694+707133226+708550340
3608+709657204+711226638+713903159+716541227+718574504+720647058+722497042
3598+722511855+719595855+715429127+714010142+718736475+729177947+739165003
3588+740043162+730919976+720080571+713727872+712166742+713142457+714514758
3578+715489651+716872800+719643138+723441261+727291604+730674363+732951681
3568+733251309+731797312+729990869+728786299+728215399+727952505+727529435
3558+726850205+726792674+728201932+730209174+730821446+729452288+727122675
3548+724672314+722723576+722358787+723904954+725940176+727148561+727866245
3538+728597695+728916026+728624478+728421210+729050465+730796459+733458093
3528+736422870+739439493+742542900+744482511+743195347+738967421+734778099
3518+732578363+731624418+731058081+731616862+733493554+734923461+734768822
3508+734269518+734159318+732498911+727615770+721941104+720049000+723465575
3498+729437325+733902634+734753934+732743027+730381170+729858374+731133493
3488+732100605+731372671+730068301+729776005+730705037+732353923+734038869
3478+735231244+735844638+736286112+736733420+736291274+734337224+731666014
3468+729236975+727233249+726013792+726274292+727504597+727807741+726287908
3458+724707776+725643466+729677401+734948973+738430336+737665595+733034051
3448+728291783+727050780+729050690+731122869+731211748+730317504+730924913
3438+734476975+740213288+745652292+747751330+744725729+738197667+732455370
3428+730249124+730440572+730770124+731273319+733076620+735498477+736594642
3418+735619974+733378267+731191548+730371893+731474567+733615949+735062390
3408+734565554+732107413+728838743+726511226+726607660+729425579+733306820
3398+735505360+735039647+733864404+733707146+733554602+732049507+730182690
3388+729410392+729608722+730417529+732136291+734620617+737483125+740748727
3378+743804028+744891814+743103327+739882164+737461205+736880578+737603425
3368+737844548+735730847+731525515+728090161+728108640+731181822+734272960
3358+735165483+734511240+734175029+735235658+737794797+741243692+744518271
3348+746494765+746155262+743240385+739438147+737455369+738051182+739359742
3338+739491115+738917895+739258445+740283837+740004409+737759261+735186730
3328+734013133+734518946+736003167+737883152+739987875+741751450+741933546
3318+740123661+737525768+735519050+734936030+736272870+739190664+742451628
3308+744890318+745967630+745360819+743074973+739965955+737189857+735680872
3298+735940998+737425444+738791460+739600193+740701370+742361328+743513379
3288+743425398+742865944+742842902+743074000+742551653+741113292+739710243
3278+739196874+739331613+739063856+737747366+735991721+735188899+736017981
3268+737690732+738847047+738780388+737600582+735789501+734180939+733635101
3258+733917147+733793256+732977791+732547091+733409988+735535435+738240610
3248+740578452+741699081+741707684+741525289+741192744+739819022+737519634
3238+735631196+735101068+735791969+736898159+737895646+739448995+742156265
3228+744054279+742479608+738857146+737367538+739210939+741472920+741075661
3218+738080734+734862414+733183528+733060310+733923806+735305309+736600477
3208+737374047+737752079+737872379+737449010+736428182+735055208+733331134
3198+731421449+729807277+728679316+728316397+729748548+733151957+735995462
3188+735281294+731543844+728116421+726660853+725830200+724733212+724859871
3178+727008211+729174356+729103807+727239085+725663666+725538054+726478907
3168+727303424+727258387+727036939+727772354+728740140+727537814+723378118
3158+718807173+716875568+717618464+718450613+717471082+715150073+713276972
3148+713409990+715655063+718052307+717874251+714495232+709973290+706548036
3138+704924063+704728501+705299626+705911749+706128633+705937335+705305387
3128+704126628+702683105+701699309+701863749+703268893+705109974+706142174
3118+705729952+704162688+701916492+699256878+696578786+694504661+693626427
3108+694314111+696181003+697674726+697244400+695124115+693011611+691889112
3098+691137088+690018853+689091617+689453564+690958584+692001930+691381653
3088+689844314+688910344+688633011+687896773+686665869+686394147+687786274
3078+689444586+689342616+687099113+684418851+682994106+682191134+680058880
3068+676732754+674852994+676086890+679031543+681113448+681516692+681484448
3058+682253903+683351863+683197074+681286716+678844285+676990037+675402797
3048+673333685+671126467+670028880+670667337+672174602+673111414+672922286
3038+671938566+670332847+667993284+665252049+662718945+660535143+658648426
3028+657576201+657834831+658709025+658720546+657363283+655476790+654081895
3018+653581843+653757878+654009850+653763863+652825555+651400061+650023047
3008+649450351+649989606+650687464+650070479+648060544+646299438+646220285
2998+647485753+648626282+648553264+647055576+644479080+641570188+639361549
2988+638501270+638550348+638427130+637743262+637105104+636877073+636529490
2978+635555495+634111598+632487849+630965024+630211504+630681856+631589042
2968+631461336+629837886+627622364+625885049+625074634+625174921+625789662
2958+625944713+624556028+621691313+618941998+617866369+618306234+618811336
2948+618498916+617686331+616751650+615511806+614114443+613520350+614274095
2938+615349985+615216182+613870477+612614511+611884894+610816597+609114631
2928+607745285+607278861+606900642+605620511+603564192+601510566+599709622
2918+597822718+595815027+594274658+593746700+594082650+594589024+594550121
2908+593663283+592382404+591682152+591976430+592407878+591844496+590404302
2898+589081303+588105663+586785843+584789599+582537419+580554716+579253637
2888+578903997+579184435+579217727+578442548+577139861+576083235+575778371
2878+575929456+575845665+575338693+574697617+573889783+572613467+571061951
2868+569785374+568883050+567898993+566465196+564793230+563430991+562524104
2858+561639025+560504780+559405735+558566554+557829829+557231397+557111621
2848+557306211+556979725+555640903+553706231+551871321+550508297+549750251
2838+549616335+549807334+549659690+548611817+546734563+544621797+542721314
2828+541006593+539381235+538045705+537217409+536803467+536610262+536568217
2818+536514875+536051444+534951613+533572130+532503534+531852022+531244986
2808+530518511+529857311+529209465+528220395+526909703+525733638+524808421
2798+523736197+522333260+520937804+519842387+518886011+517773761+516512932
2788+515330470+514258507+513089249+511794006+510583788+509437835+508143078
2778+506916738+506245326+505981010+505392865+504267411+503193503+502589572
2768+502073510+501034577+499469145+497950023+496920966+496367011+496090650
2758+495855325+495324562+494296065+492890659+491327659+489811305+488563307
2748+487533800+486327435+484799111+483315338+482158911+481160340+480066158
2738+478836077+477536644+476285279+475251845+474415806+473435265+472057653
2728+470522558+469280619+468546962+468329368+468467211+468442036+467714776
2718+466383660+464952743+463566938+462050397+460471461+459114834+458070627
2708+457230735+456518662+455872087+455154253+454320721+453522088+452793968
2698+451850384+450519006+449107952+447973183+447060723+446171641+445303395
2688+444555299+444016044+443715257+443419595+442691923+441420920+440018020
2678+438901955+438108110+437534853+437158393+436748228+435778386+434039425
2668+432122183+430905606+430617612+430657525+430357935+429689703+429029999
2658+428470956+427797337+427032071+426448191+426053737+425529857+424622745
2648+423310856+421763305+420309121+419231584+418530172+418021217+417568970
2638+417090202+416497868+415803787+415206515+414918409+414824032+414454192
2628+413491831+412179231+411028714+410297750+409883060+409530053+409079976
2618+408603939+408226319+407842339+407268858+406627333+406190573+405872130
2608+405313387+404483370+403745898+403273414+402825208+402201713+401499627
2598+400832293+400185045+399573708+399009615+398341420+397415717+396365376
2588+395547404+395185008+395152577+395147153+395021391+394839146+394648335
2578+394381064+393964765+393414364+392879598+392626654+392784473+393062666
2568+392950484+392293959+391514741+391137233+391216460+391379179+391307246
2558+390965050+390478501+390051355+389891366+389995432+390093063+389912090
2548+389432835+388862533+388421658+388197144+388194862+388398391+388708044
2538+388980664+389126699+389010028+388463853+387652577+387078609+386994370
2528+387156640+387222251+387047076+386672672+386284279+386060400+385965574
2518+385812057+385506894+385167466+385016043+385115021+385246917+385192453
2508+384995694+384789284+384556689+384213408+383754578+383265037+382863439
2498+382616032+382497939+382444934+382375731+382203286+381932387+381694182
2488+381617236+381657037+381541563+381004515+380178838+379540081+379338048
2478+379368572+379366402+379311265+379313771+379412375+379478809+379288110
2468+378775788+378187419+377875373+377968066+378245773+378351709+378151733
2458+377815971+377559361+377446991+377409360+377302415+377025605+376635454
2448+376233183+375808729+375353677+375004224+374924174+375109449+375351620
2438+375383789+375104474+374671230+374335131+374181913+374051888+373743918
2428+373290587+372913491+372710260+372598077+372549224+372603277+372681233
2418+372670422+372622429+372635596+372683178+372743365+372892917+373105087
2408+373177058+373010262+372778340+372704088+372793228+372832879+372610609
2398+372181592+371862064+371834346+371902313+371807375+371574556+371336575
2388+371044504+370542843+369740620+368556811+366814782+364340631+361197423
2378+357741197+354316953+350902959+347242642+343393384+339877082+337090697
2368+334866908+332918283+331311816+330129167+329307455+329266869+330868323
2358+334388889+339311007+345206335+352093539+359735272+367037726+372492591
2348+375062803+374807839+373029152+371181225+369331914+366741652+363384367
2338+359730259+355866038+351674322+347463940+343906192+341443150+339993380
2328+339215396+338856292+338808972+339051181+339637680+340638533+341970846
2318+343333683+344443800+345320800+346185193+347129487+348115115+349193026
2308+350423555+351649970+352605075+353191798+353536950+353849333+354256242
2298+354714175+355115960+355503792+356041663+356748536+357400759+357739776
2288+357703903+357454288+357207928+357046555+356901081+356720406+356571977
2278+356527837+356541603+356506179+356363659+356120329+355844754+355660563
2268+355620950+355608456+355507570+355415063+355480637+355615301+355594204
2258+355394864+355203978+355115436+355035835+354913777+354862081+354968278
2248+355151571+355325886+355535775+355795639+355978445+356011513+355995652
2238+356026662+356092124+356196601+356376265+356563747+356658424+356736828
2228+356970732+357336045+357629164+357777930+357904776+358105426+358397460
2218+358805566+359275469+359638089+359821868+359936968+360096695+360335013
2208+360643057+360937335+361128707+361309082+361666690+362191206+362687967
2198+363067009+363419866+363830815+364275281+364720421+365217031+365829603
2188+366522636+367186044+367762144+368288268+368807959+369288523+369667826
2178+369962067+370279537+370733280+371383221+372208038+373073404+373825764
2168+374493960+375294425+376393395+377782903+379402500+381246461+383345349
2158+385760960+388567245+391708358+394930979+397985009+400821145+403506682
2148+406069001+408514387+410888401+413224149+415464546+417480017+419234614
2138+420963700+423047663+425653561+428647067+431827681+435058981+438247226
2128+441383924+444517256+447549740+450175314+452101982+453242922+453644820
2118+453333334+452310075+450623782+448350879+445592399+442568706+439571497
2108+436732742+433946731+431021792+427821988+424338342+420716629+417165278
2098+413817979+410688089+407691067+404725840+401788033+398970301+396373717
2088+394090975+392194457+390650572+389318970+388056682+386775316+385469973
2078+384256314+383284863+382576044+382007874+381460502+380920238+380462305
2068+380169262+380051318+380006617+379850108+379423335+378713132+377889625
2058+377239497+376988236+377075693+377174633+377057700+376838422+376721302
2048+376681314+376565354+376393133+376366201+376599506+376997775+377451817
2038+378017443+378791088+379724197+380662094+381476812+382120992+382635371
2028+383088702+383445337+383554303+383325486+382848477+382269047+381580540
2018+380631084+379377101+378034388+376895430+376073493+375468328+374879847
2008+374161339+373363380+372692567+372250532+371886079+371382174+370707171
1998+370024611+369554521+369434671+369565743+369591741+369211914+368494043
1988+367725635+367096679+366647126+366336426+366065901+365746560+365365947
1978+364969474+364638537+364437738+364304533+364127600+363984519+364051141
1968+364211316+364067749+363480614+362796633+362376818+362184286+362013113
1958+361872801+361878711+361950868+361914659+361764957+361613535+361519869
1948+361563560+361938936+362720398+363517273+363652161+362918093+361847327
1938+361016375+360533418+360265698+360111919+359990535+359852953+359738002
1928+359777429+360206670+361123695+362136218+362757094+363147620+363637161
1918+363756002+362878890+361531203+360821037+361052734+361631565+361841828
1908+361425118+360652633+360001046+359722441+359713950+359748289+359782741
1898+360008827+360507308+361015739+361385167+361934447+362752493+363141261
1888+362535535+361418572+360559976+360131483+359955522+359897729+359853364
1878+359792466+359812591+360020385+360628730+362069223+364412452+366545604
1868+366752500+364825795+362404424+360902023+360459240+360575126+360824741
1858+360951287+360824741+360537682+360368566+360605051+361374918+362649550
1848+364500582+366983973+369256390+369561928+367534524+365065123+363791613
1838+363754580+364162351+364584896+365512320+367585771+370215048+371722200
1828+371575566+370891249+370220959+369110055+367678989+366777750+366771802
1818+367297890+367948354+368749306+369992367+371638709+373006521+373407446
1808+373034090+372775011+373407221+375193689+377758888+380097553+381227085
1798+381278631+381587797+383447731+386705403+389267386+389091724+387121029
1788+385867643+386386885+388088777+390169747+392381379+394489431+396091970
1778+397429745+399572960+403409387+408479524+412579856+413707143+412529544
1768+410884137+409910629+410442252+412831678+416007317+418257851+419479815
1758+420724821+422211100+423916545+426706895+431161954+436037689+439080759
1748+439705038+439332543+439436720+440702562+443064120+445630254+447372358
1738+448921181+452319801+457973893+462573005+462915875+461023771+459657941
1728+459297304+460056696+462232380+465525289+469696132+475513056+483533906
1718+491797712+496130488+495391520+492880186+491526177+492376954+495609488
1708+500820349+506643707+511505825+515882405+521928931+529960815+536868031
1698+540503772+541949764+541620847+540268260+540506989+543725758+549015921
1688+555517798+564148077+575043030+583612224+585646810+584763789+585725364
1678+589967430+596687650+603788819+609745307+615371793+621633258+627006389
1668+629627137+631231359+634796888+640623575+646343428+650059406+652947575
1658+657572685+665831853+678463635+692576646+699984962+700558406+702647493
1648+708294254+713311236+713819817+712119161+711982851+714488200+719705307
1638+727505720+735621320+738767221+735397329+730797506+728747471+728964879
1628+729849397+730728678+731580577+731140076+727928789+723570688+721240926
1618+721337660+720701746+716702076+711101026+706379557+702757245+699344036
1608+695653794+692082953+689288301+687356995+685725840+683920669+682213204
1598+681234795+681019333+680853322+680128606+678940345+677685127+676423400
1588+674860475+672986551+671478538+671013349+671517815+672831388+675559980
1578+679960201+683788324+683769920+681480782+681400657+684645461+688517499
1568+690457110+691702078+694560172+699704187+707746022+720389550+736778308
1558+748140509+750061939+750172065+753405123+759869219+768335620+777383170
1548+785884134+793948712+802661323+812704564+823434741+831451065+831574133
1538+826005178+822345010+822695436+824339534+824617465+824675595+827333638
1528+833052444+839833076+845873878+851287745+856093080+859076860+860409435
1518+861682459+862956156+863365235+863367704+864573321+868527131+876108041
1508+886024997+892262259+889717858+883822417+880754398+881140883+883310919
1498+885508934+886593354+886524301+886702731+888766232+892791563+896399811
1488+896933753+895173321+893830197+893849274+894139475+893762117+893675109
1478+895767787+900558983+906524823+911173648+912607670+911180007+909152940
1468+908115130+908040466+908002610+907587770+908174157+911703775+918265503
1458+924431094+924745759+919749276+915298107+913707052+914072291+914812269
1448+914460123+912609690+910419904+909278327+909623366+911438487+914732369
1438+918553909+920244615+918369120+915455889+914184960+914538527+915190750
1428+915353694+915015612+914315359+913739820+914420622+917124301+920618308
1418+921927092+920120201+917592333+916290955+915874394+915042320+913545455
1408+912404328+912127593+911741706+910331325+908719397+908384458+909713067
1398+911899263+913460318+912639765+908869173+904153614+901054995+899891498
1388+898849723+896197740+892530091+890337985+891489737+895868337+901884226
1378+907769118+912296596+914693615+914968255+914521395+915169728+917348142
1368+920033791+922259637+924036080+925635365+926787340+927062504+926669734
1358+926503947+927399014+929193337+930767036+931436390+931772602+932612531
1348+934023735+935669254+937507717+939663239+942049634+944284608+945803318
1338+946369506+946500953+946922451+947688839+948266473+948315775+948006795
1328+947680684+947486244+947434773+947762530+948977124+951197734+953554952
1318+954860445+954975283+954832839+955057653+955378378+955546408+955933418
1308+956718135+957126765+956172895+954052910+952181754+951587736+951756589
1298+951453221+950292044+948884655+947773752+946946466+946103170+944827977
1288+942899888+940640301+938348768+935679578+932420560+929272490+926973551
1278+925284864+923513060+921303523+918515829+915278431+912411884+910941951
1268+910988859+911585271+911543600+910252995+907792310+904563367+901027763
1258+897650465+894683742+891996073+889416958+887194479+885845520+885741155
1248+886942507+888990597+890762401+891254374+890797040+890800182+892083755
1238+893930222+894938931+894664665+894135510+894533891+895701054+896537691
1228+896731458+897226348+898793688+900949134+902669617+903653711+904412842
1218+905431351+906777542+908415580+910428881+912812135+915133742+916877866
1208+918193159+919649924+921272101+922542881+923485978+924930473+927430735
1198+930508256+933199142+935240274+937245496+939432439+940977709+941302548
1188+941253471+942079410+943970915+946485317+949533960+953167868+956959109
1178+959942290+961069353+960302292+959296876+959843162+961913846+964257598
1168+966102046+967361977+968404277+970339323+974171038+979069216+982622850
1158+983164423+981178279+978694626+978053476+980557104+985352788+990046203
1148+992954496+994144477+994065624+992602873+990321740+989373631+991656036
1138+996330897+1000252237+1001689402+1002615142+1005548124+1009260062
1130+1009913407+1006402567+1002053069+1000666404+1003041129+1007366686
1121+1011761072+1015887027+1020096399+1023869909+1026170194+1026980722
1113+1027369976+1028179755+1029681932+1031723438+1033251426+1033178558
1104+1032228354+1032241670+1033472125+1034382080+1033815967+1032330549
1095+1032022168+1034704226+1039522579+1043401500+1044677517+1044853926
1087+1046112960+1048816714+1051828773+1054189059+1055820738+1056837152
1078+1057096231+1056786204+1056792788+1057271219+1056697775+1053705017
1070+1049058585+1045337146+1044792505+1047264113+1050843183+1054630383
1061+1059155842+1064025292+1067161392+1066895879+1064309358+1063057806
1053+1065836448+1070859639+1073741823+1073200623+1071911440+1072047151
1044+1072849150+1072192738+1069472226+1066565354+1065278041+1064871206
1035+1063688258+1062199772+1062494162+1065375672+1069303372+1071822337
1027+1071590192+1069532825+1067665409+1066597973+1065484750+1063853894
1018+1061948324+1059818239+1057539500+1056229892+1057259772+1060446072
1010+1064351179+1067725484+1069375418+1068291522+1065385847+1062791994
1001+1060862708+1058620178+1056598348+1055991462+1056032011+1054890958
993+1052145159+1048663272+1045433431+1043167110+1041622140+1039737667
984+1037404613+1035835104+1035840341+1036982367+1038401875+1039277116
975+1038352573+1034563577+1028730007+1023231826+1019680811+1017844667
967+1016490771+1014625674+1011857282+1007893821+1002372223+995565107+988890037
957+983977121+981100772+978768018+975272066+970520297+966047731+963544627
947+963342930+964168046+964555804+964203807+963435549+962188261+960543640
937+959247798+958743182+958596323+958400088+958226446+957862479+956748883
927+955129623+954333609+955213414+956708110+956875018+955382193+953872759
917+953778046+954786604+955484014+954778300+952596743+949655382+946935992
907+945512818+946121649+948139290+949651941+949299121+947432379+945079948
897+942804725+940970602+940088478+940244164+940528679+939642889+937376120
887+934950522+933467572+932826946+932824552+934076254+936584595+938531612
877+938092159+935943146+934372215+934437602+935239601+935385188+934156977
867+931567015+928284355+925647933+925099252+927147641+930578132+932972533
857+933009042+931903300+931815245+933232584+934581319+934487278+933323557
847+932201432+931805071+932453777+933733010+934088224+932456096+929769101
837+927555823+926310555+926033820+926816966+928429044+930605065+933598122
827+937305721+940119600+939947006+936751878+933000139+931236190+932015670
817+934095406+935918083+937142628+939073560+942919938+947580434+950481022
807+950702918+949290218+947094896+944780246+943534230+943834082+944997654
797+946390079+947347540+946608310+943799144+940682421+939576455+941213520
787+944638774+948616075+952347315+954782564+954438947+951086187+946928286
777+944706181+945022267+946250253+946556763+945507357+943836251+942300932
767+940975240+939616854+938770641+939441342+941505218+943899918+946209330
757+948500788+949983813+949858051+949234258+950012167+952021429+953009713
747+951568284+948769293+946656789+946356339+947480933+948478494+948023254
737+946585641+946262672+948412583+951597387+952758789+950666858+947189460
727+944820346+944911169+947552679+951072047+952488638+950156931+945666560
717+941769533+939732516+939397876+940316434+941849957+943301785+944875334
707+947075370+948736674+947664225+943691862+938933285+935183566+932904228
697+931758013+930890328+929322465+926361727+921781730+916666443+913462487
687+913190541+913386477+911066665+906926869+903873214+902220961+899444788
677+894697358+891109535+891745299+894270773+892686974+884775689+876496023
667+875634023+879751001+882851266+883925884+883456580+880456790+874582971
657+868826235+866890140+869060101+872526801+874458556+873573814+869668857
647+863835587+858900825+857288747+859044840+862850968+866956724+868697780
637+866091134+860890710+857270717+857625931+860986545+864242347+863540523
627+856208592+844298160+833938384+830059312+832628327+837205407+839606242
617+839689958+839177187+837460371+832158649+823504916+815097768+810292657
607+810745876+816784883+825956175+833163018+836334804+839203147
##END=
