##TITLE=<SNM>
##JCAMP-DX=4.24
##DATA TYPE=INFRARED SPECTRUM
##DATE=2/5/2025
##SAMPLING PROCEDURE=Instrument type and / or accessory
##ORIGIN=Admin
##XUNITS=1/CM
##YUNITS=ABSORBANCE
##RESOLUTION=4
##FIRSTX=4497.3318
##LASTX=599.83466
##DELTAX=-1.4281778
##MAXY=1.7797204
##MINY=0.23623787
##XFACTOR=1
##YFACTOR=1.6574938e-09
##NPOINTS=2730
##FIRSTY=0.25352371
##XYDATA=(X++(Y..Y))
4497+152956051+153019144+153707054+154894189+156035761+156398066+155592690
4487+153920445+152173582+151254642+151668891+152928631+153779029+153450456
4477+152371689+151499840+151434805+152201991+153355736+154213039+154351686
4467+153920984+153371523+153049818+153163922+153805928+154622326+154814158
4457+154089083+153193571+152812262+152612554+152155494+151876582+152332762
4447+153277791+154063155+154223234+153498950+152035349+150583121+149947093
4437+150265956+151067431+151794574+152122518+152022817+151701490+151424341
4427+151307432+151241390+151088953+150968916+151166970+151604845+151646901
4417+150840932+149687456+149186308+149635224+150274929+150201335+149395366
4407+148681546+148745816+149354272+149739662+149686566+149695718+150022529
4397+150241458+150005808+149667741+149756726+150187454+150374917+150031079
4387+149519880+149309509+149307496+148986016+148107658+147072628+146417280
4377+146203053+146144967+146096870+146057439+145949081+145785307+145799772
4367+146091035+146398113+146398544+145988970+145262546+144471392+143947346
4357+143853659+144093823+144496520+144892501+145083794+144984561+144688685
4347+144274076+143738019+143200820+142928435+143060537+143456617+143828541
4337+143919674+143608929+143015406+142527150+142570168+143202015+143954358
4327+144223102+143860015+143302624+143121742+143481925+144022971+144274211
4317+144186548+144123976+144300156+144482747+144378326+144031872+143675753
4307+143430833+143302085+143261467+143281408+143456240+143996423+144905699
4297+145813203+146294393+146193577+145647523+145073330+144958974+145315840
4287+145573929+145304638+144743111+144411814+144531626+144884788+145088325
4277+145044723+145041873+145240223+145398414+145315651+145113650+144980758
4267+145029565+145274242+145413158+145013617+144233207+143876054+144392036
4257+145267005+145772693+145912886+146185864+146788853+147494303+147974028
4247+147943839+147387239+146824571+146844565+147339933+147713816+147636240
4237+147155733+146445761+145789963+145422058+145282666+145324875+145836497
4227+146935015+148064370+148552528+148417567+148195159+148214344+148357782
4217+148380366+148296442+148396935+148788412+149056076+148730578+147965208
4207+147368629+147341578+147853784+148626957+149369627+149993374+150520091
4197+150729885+150291228+149343555+148501320+148188093+148258702+148256445
4187+147940135+147579098+147597070+147937276+148170580+148254198+148645459
4177+149540584+150524972+151165495+151504209+151721322+151689425+151272964
4167+150841507+150945901+151510430+151839525+151558456+151116751+151154707
4157+151712799+152288944+152476623+152312318+152068253+151934461+151913064
4147+151831847+151462872+150838738+150397042+150483671+150752900+150518427
4137+149781683+149346432+149721080+150484445+150999303+151254013+151613782
4127+152092383+152287433+151865830+150872038+149734385+149085178+149294541
4117+150063453+150760533+151151920+151405857+151490023+151206688+150748037
4107+150540202+150613058+150755507+151117164+151951578+152941720+153410234
4097+153101404+152341231+151619068+151268900+151304466+151439048+151409543
4087+151187881+150860872+150594997+150625662+150936174+151181822+151212082
4077+151293462+151631222+152142925+152739100+153296994+153445368+152906533
4067+151969487+151244429+151028917+151107239+151098177+150892014+150720302
4057+150834711+151227510+151704097+152056332+152093641+151737774+151262535
4047+151228678+151881581+152722468+153017022+152635191+152004027+151446259
4037+151036990+150923696+151294271+152069727+152919137+153518980+153716602
4027+153612298+153486939+153476007+153410234+153154140+152906892+152939347
4017+153194272+153347663+153182603+152783727+152438127+152420398+152829505
4007+153547137+154315527+154916646+155311836+155552144+155576381+155253526
3997+154650915+154061393+153740120+153781079+154145613+154582392+154758527
3987+154726360+154921951+155464040+155861820+155700194+155328612+155566510
3977+156785650+158450289+159639132+159962203+159740631+159343157+158811784
3967+158279835+158252937+159047560+160220401+160976457+161025885+160682406
3957+160308289+160088281+160154862+160645960+161634843+162853893+163592256
3947+163584956+163766935+164928106+166039166+165376393+163094093+161027808
3937+160529357+161825525+164453695+167203466+168335923+167210892+165394391
3927+165010888+166456257+168237318+169016767+169337158+170472114+172180356
3917+172578081+170397622+166663750+163438974+161861611+162048661+164202168
3907+168952271+176242980+184072596+189206616+189926801+186836842+181298660
3897+175307013+171638464+172185120+176005622+179048311+178143989+175852681
3887+176635581+180547279+184022233+185696816+186662504+185586650+181137052
3878+176889608+176988194+181103753+186372625+191104317+194005842+193338016
3868+190595077+189442626+190205299+189720782+186425433+182759815+181978587
3858+185932358+195191466+207452322+213774934+207235785+195384018+186411517
3848+182351463+182761649+186487322+192119272+198522201+204759603+209042037
3838+209119748+205388340+200959833+197592617+194823481+192362743+190962901
3828+190699255+190907324+192694948+198348295+206301238+210184167+208350225
3818+205746868+203613733+199107713+192903952+189052093+189954024+195060947
3808+200972887+204165730+206009237+209937513+214581298+215441982+213117734
3798+211261766+209676420+206680768+203447163+202372423+204073455+207753116
3788+212677718+218266713+223744841+229137922+235698503+243716265+251097092
3778+256324160+261363010+269231068+281335711+297265566+314269513+328008156
3768+336697413+341815448+344700144+346618684+349588858+354104084+358119996
3758+360358190+363258277+370684342+384366743+401590194+415230017+421814314
3748+426582344+434612513+445678737+455674374+463596661+473602296+488404189
3738+506936035+525235214+538875937+545899170+547687028+547814329+549890988
3728+555686343+564159081+572228195+577696955+579897067+577986870+572290012
3718+565931871+562838819+565100532+571583168+576973318+575140617+566663168
3708+557313277+551608543+550953375+553910352+557537205+560067436+561859609
3698+563532717+565224596+567417156+570959573+575994827+580814964+582468078
3688+580393001+577395784+575533559+575353504+577306854+581497282+587863118
3678+596254800+603151956+602222012+595150951+589721208+588151164+586094031
3668+579992255+571681017+564809430+561280534+560365694+560378280+561304880
3658+564081909+568027769+571957015+577081991+585337490+595179755+599815665
3648+593876539+581434711+570040274+563562457+561891183+563114386+565830498
3638+569561529+573299860+575479223+576529491+579690581+586985497+593925338
3628+592721481+585666387+581043063+582247854+588341180+596187806+601688930
3618+603537994+604998646+608473169+612416548+615058581+617158614+618691763
3608+617197380+612499617+608332994+607773949+610643182+614756798+618416591
3598+621531651+624277898+626067735+627221857+629980187+635581642+641050690
3588+641142246+635634289+629976879+627509759+627401229+627947472+628638709
3578+629722924+631059152+631624598+630693791+629888847+632437814+639274015
3568+646200551+647250315+642619440+637686350+635477716+635007422+634050220
3558+631777287+629211419+627976816+629047367+632079501+635650183+638124999
3548+638384779+636210955+632059795+626780691+621753888+618839561+619446578
3538+623146718+627347576+628945885+626532778+620973038+614761905+611175975
3528+612209414+616054980+618178963+616430913+613419420+612395187+613272125
3518+613944590+613586997+613145399+613389213+613920712+613983212+613636479
3508+613906544+615261327+616271391+614726232+610300980+605360266+602535625
3498+602288072+602952374+602715249+601363738+599773411+598276295+596497175
3488+594440007+592793007+592256366+592902759+593957199+594302530+593614422
3478+592403625+590727892+588241389+585802965+585256830+587004449+589031949
3468+588969953+586546093+583423158+581338912+580891273+581459416+581998790
3458+582085743+582039714+582028818+581644182+580592187+579287533+578482121
3448+578599893+579521817+580838410+581896051+581444240+578407503+573937695
3438+571168541+571642611+573259476+572968338+570612229+568392087+567317365
3428+566289644+564651778+563704178+564639048+566207762+566041839+563792281
3418+561048624+558999726+557977328+558075428+558827439+559114369+558215459
3408+556445869+554693504+553777405+553827678+554024527+553683656+553383492
3398+553862560+554309048+553173409+550392244+547538726+546064409+546176859
3388+546964254+547074222+545725120+543651122+542666878+543752927+546022623
3378+548044370+549403936+550019044+549069538+546217350+542921264+541087808
3368+541145309+542237507+543478223+544247818+544084089+543235417+542726393
3358+543034936+543269364+542427416+540907537+539985540+540268047+541139303
3348+541439036+540782573+540281748+541292712+543364300+544361922+543068199
3338+540868663+540015423+540526605+540089323+537562544+534829926+533915373
3328+534214063+534048608+533275416+532738164+532729461+533217448+534269550
3318+535610021+536539929+536592863+535984013+535422810+535455318+535857359
3308+535852325+535000595+533785735+533117333+533253912+533637936+533855355
3298+534128261+534577122+534593628+533475969+531439047+529618429+528984082
3288+529416653+530071318+530466885+530870436+531786931+533482370+535757604
3278+537863319+539039630+539322425+539334004+539250611+538499176+536667769
3268+534309395+532445911+531508236+531208539+531306532+531793656+532148408
3258+531315450+529047732+526719708+526009700+526996462+528306366+528936002
3248+529085743+529246595+529320854+528909032+528037704+527227689+526781884
3238+526218632+524850722+522849761+521152847+520403354+520409072+520529289
3228+520244552+519375849+518017937+516381329+514702540+513226173+512180688
3218+511767355+512101538+512971715+513687909+513527488+512402205+510877651
3208+509577924+508759926+508218933+507470339+506364655+505487681+505525620
3198+506298487+506887056+506660971+505791082+504848731+504150375+503533253
3188+502725180+501665957+500368423+498825853+497242000+495936410+494897721
3178+493843605+492667510+491454016+490291407+489308529+488551017+487740426
3168+486510786+484865188+483280796+482525729+483039176+484050858+483886985
3158+481854918+479190265+477422617+476639896+476074630+475615700+475766663
3148+476446679+476758459+475973724+474201221+472095938+470365976+469365370
3138+468716171+467688162+466270627+465325508+465361649+465820148+465948923
3128+465701477+465279802+464485574+463166355+461719369+460569849+459670723
3118+458910118+458411523+458106541+457604745+456718529+455654632+454664346
3108+453864544+453283814+452832400+452343730+451689173+450781057+449678898
3098+448790848+448648156+449310912+450130241+450259088+449481725+448435592
3088+447888630+447963644+448216879+448204293+447769888+446973862+445889431
3078+444511309+442978268+441731726+441115575+440987124+440992769+440914914
3068+440592419+439947320+439143706+438332756+437434422+436483765+435821189
3058+435596003+435403577+434759269+433744026+432845117+432261510+431713829
3048+430891480+429752065+428412385+427118231+426261827+426054981+426264452
3038+426510567+426667247+426757473+426615248+425926996+424704404+423522520
3028+422948983+422750408+422034394+420368586+418417502+417150391+416723825
3018+416508456+416016154+415366237+414871957+414551367+414093371+413204890
3008+412083528+411371829+411322204+411323462+410676853+409478139+408329374
2998+407568050+407096569+406658784+406085031+405421807+404850859+404413109
2988+403889594+403073861+402109179+401344079+400833329+400311899+399706177
2978+399163350+398520912+397423320+396091263+395318755+395504708+396061524
2968+395951304+394756977+393139069+392091929+391876561+391937083+391674641
2958+390998292+390277388+389943349+389968881+389790804+389000136+387854751
2948+386812754+385950416+385127564+384315643+383513683+382668499+381825292
2938+381098454+380450406+379758415+379118710+378797149+378805923+378786217
2928+378423086+377753174+376984082+376271125+375716755+375343447+375048174
2918+374702483+374203565+373447095+372482521+371608784+371078040+370822683
2908+370581854+370149463+369535398+369033242+368951180+369171979+369217685
2898+368791802+368010089+367130238+366298647+365525707+364760284+364026685
2888+363501875+363333902+363341130+363059235+362269178+361324922+360670041
2878+360219777+359616716+358892863+358378553+358104641+357802463+357405097
2868+357093533+356847490+356358101+355520289+354714949+354355665+354304026
2858+353978509+353020516+351726470+350776065+350548757+350759415+350797390
2848+350336949+349523697+348713754+348185384+347976200+347872526+347605625
2838+347091495+346474913+345951577+345561044+345199818+344813780+344410768
2828+343910267+343259630+342639272+342214253+341803006+341118890+340170642
2818+339191432+338387998+337850961+337487002+337056553+336451658+335821950
2808+335326879+334963028+334672466+334387549+333984681+333420206+332831997
2798+332297261+331659283+330852216+330172847+329882860+329750237+329364198
2788+328722228+328127402+327676706+327196775+326555524+325772479+324905287
2778+324023279+323249225+322694998+322352544+322103876+321825936+321448924
2768+320937778+320287717+319554945+318839615+318197429+317594584+316991451
2758+316430608+315963550+315518500+314954061+314220283+313364382+312443464
2748+311548007+310833468+310428370+310336994+310382592+310201243+309488430
2738+308379150+307358010+306712227+306327915+306013367+305703098+305351726
2728+304922427+304466697+304033011+303559840+302974184+302316391+301698298
2718+301211138+300885083+300649127+300331486+299778572+299025411+298337878
2708+297996701+297967843+297894986+297522056+296963047+296412596+295839041
2698+295183333+294600536+294235895+293957739+293537430+292962886+292436259
2688+292155568+292159344+292297433+292276989+291794486+290808714+289737067
2678+289142816+289097955+289098333+288717221+288043965+287395827+286945114
2668+286698873+286561431+286390276+286134236+285826286+285407991+284791912
2658+284111428+283623172+283350050+283094154+282778275+282498123+282271229
2648+282001757+281663637+281289735+280849738+280363873+280037260+280029025
2638+280156506+280064590+279648003+279099225+278596854+278167825+277822728
2628+277601264+277447945+277189532+276716595+276137142+275676215+275416615
2618+275229278+275020472+274890061+274905596+274904049+274710778+274385064
2608+274070858+273762189+273357271+272839024+272342532+272069285+272080109
2598+272187578+272172816+272039545+271902104+271744200+271475736+271122422
2588+270788670+270503358+270231729+269993957+269858619+269813380+269754674
2578+269650586+269573810+269513845+269330482+268974561+268590015+268328832
2568+268184486+268027967+267760887+267468724+267402700+267697165+268143886
2558+268395503+268370834+268300495+268363337+268445741+268333525+268009969
2548+267641623+267348651+267107211+266850146+266582652+266356496+266140857
2538+265816923+265367810+264958307+264742723+264724077+264836275+264993639
2528+265063187+264961778+264754069+264544939+264355246+264166345+263972589
2518+263755134+263498519+263252673+263120032+263151156+263251451+263246740
2508+263091929+262945874+262955224+263048650+263031281+262814708+262494909
2498+262259726+262217922+262260931+262157868+261862253+261600459+261542760
2488+261551678+261410442+261145196+260933100+260808334+260640883+260346922
2478+259991846+259703262+259549368+259485700+259384704+259137312+258761343
2468+258405782+258218552+258203736+258219685+258108962+257821384+257438241
2458+257105335+256926017+256884338+256867239+256774928+256603107+256412660
2448+256242763+256064236+255817204+255515566+255303685+255323410+255504760
2438+255588296+255402380+255043330+254753702+254687930+254811671+254971768
2428+255040291+255009725+254959811+254932553+254874009+254753738+254689638
2418+254816220+255049821+255159339+255065410+254898013+254784934+254757910
2408+254832834+255024594+255277973+255468727+255508571+255460636+255511035
2398+255759397+256089085+256363609+256733897+257658320+259650777+263123412
2388+268487653+276291935+287161327+301587018+319761576+341546570+366532967
2378+394123170+423527518+453618321+482939816+510246613+535039505+557213199
2368+576325558+591560778+602368012+608749419+610556732+607062502+597804275
2358+583198763+563824574+539779449+511647462+483153135+460981707+450464927
2348+453318481+467929315+488971289+508691528+522178303+529180427+531204404
2338+530472136+529283203+528703840+528429460+527421733+524705765+520163820
2328+514313229+507345124+499031728+489440756+479169480+468793486+458352260
2318+447550815+436337297+425105474+414339810+404134486+394117883+383892457
2308+373435768+363010004+352923458+343482371+334873306+326967993+319486728
2298+312407288+305971581+300291156+295182794+290399643+285849553+281569941
2288+277614875+274023551+270865806+268250060+266241745+264781129+263707738
2278+262861277+262139599+261471629+260800189+260133604+259540827+259018624
2268+258445500+257769169+257133114+256695005+256413595+256121126+255725073
2258+255263985+254819708+254430865+254082676+253745148+253380345+252946371
2248+252467015+252060749+251829198+251763588+251792968+251834592+251784049
2238+251567027+251218945+250857702+250608170+250566582+250741890+251003325
2228+251180233+251235631+251272239+251385910+251589106+251854083+252147918
2218+252418180+252593633+252649767+252693316+252927816+253468107+254226429
2208+255029899+255769466+256391317+256878746+257307254+257797686+258373471
2198+258947458+259445927+259876035+260293251+260761046+261329495+262000378
2188+262696163+263302263+263760384+264079392+264268563+264359436+264475103
2178+264743694+265132339+265457532+265560721+265433582+265184914+264928568
2168+264724023+264585395+264475841+264302007+263994381+263590938+263199397
2158+262902254+262724285+262650134+262638015+262646573+262723475+263048309
2148+263742890+264684790+265767279+267279175+269673313+273030119+277087889
2138+281655905+286675031+292053637+297743717+303853963+310497343+317598503
2128+324952863+332467823+340256983+348424990+356853352+365286712+373495498
2118+381285162+388507978+395114462+401129825+406656734+411933500+417274240
2108+422931506+429054211+435680259+442678535+449738197+456491833+462653843
2098+468023855+472496720+476218940+479501757+482310360+484041544+483917947
2088+481326439+475837865+467244551+455582279+441145135+424621119+407010371
2078+389318100+372447460+357134565+343735642+332255331+322629765+314807845
2068+308636484+303796174+299823972+296331433+293266646+290735785+288656447
2058+286888098+285463766+284389260+283527714+282852102+282495084+282548720
2048+283086458+284291178+286410036+289666422+294224603+300221176+307901376
2038+317612025+329504769+343321051+358437673+373943641+388844965+402507947
2028+414814563+425826127+435555978+444094308+451687627+458484595+464124960
2018+467742751+468600809+466653896+462433332+456558037+449298433+440476266
2008+429919426+417956666+405271276+392480988+380041461+368260627+357188362
1998+346763713+337268541+329274189+322842185+317152015+311372770+305605680
1988+300498038+296370576+293101568+290430083+288104307+285974912+284040334
1978+282338529+280884458+279679595+278659605+277801925+277348676+277536876
1968+277987823+277842434+276755774+275301379+274184763+273553131+273225008
1958+273147045+273333412+273594972+273639455+273423080+273232398+273369336
1948+273933020+275023133+276741138+278526281+279048502+277702763+275599296
1938+274174425+273742932+273833086+274060321+274318429+274597664+274902970
1928+275362404+276372469+278183108+280235907+281731620+282879576+284264836
1918+285232377+284638378+283011030+282109747+282822183+284579726+286193391
1908+286906294+286898472+286833653+287037065+287379824+287783573+288449188
1898+289563610+290904567+291950736+292697550+293868394+295579980+296544536
1888+295737020+293983684+292607792+291845407+291342568+290989218+290800425
1878+290690097+290578116+290575005+291313674+293851367+298385382+302792906
1868+303682142+300360218+295701347+292405495+290957825+290572614+290484869
1858+290328458+290069002+289886106+289946322+290356148+291295154+293030204
1848+295927162+300080030+304039771+304787862+301530883+297413257+295288231
1838+295195308+295651739+295974487+297253987+300750356+305452704+308342614
1828+308316398+307265626+306207698+304308110+301664567+299794592+299453217
1818+299990470+300626058+301509468+303302901+305889842+307921837+308173958
1808+307058529+306118912+306675367+309199413+312966837+316089736+316984474
1798+316274214+316381809+319235902+324304995+327919945+326543944+321887321
1788+318436208+318097602+319781570+321887465+323920755+325670027+326665384
1778+327415092+329734486+335066667+342538438+348217605+348492272+344580323
1768+339809740+336244057+335370319+337789827+341625001+343895056+344435869
1758+344988837+345662561+346306689+348823075+354861812+362502815+367183136
1748+367126570+364902832+363416684+363843573+365991794+368556907+370005620
1738+371177148+375183026+382788859+388655992+387119930+381262795+375825608
1728+371978604+370126628+370567110+372623847+376092077+382559034+393240658
1718+405146924+410854283+407393641+400070315+394175277+391829308+393684054
1708+399441722+406977755+413203380+418128558+425029237+434579142+441746002
1698+442946443+440022010+434030310+426904336+422995444+424120259+428772891
1688+435851971+446668232+460353869+467962039+463306494+454500221+449656314
1678+450672276+456036355+462099150+466255596+470231411+475852681+480043002
1668+479065014+476185677+476948871+481977688+487278583+489644618+491064850
1658+495735390+506470991+523992161+542773322+548671956+543186438+541455290
1648+546378346+550347797+546484826+539046750+534861967+535947045+542332587
1638+553469222+565572948+570310483+565408320+559653708+559581355+565194857
1628+573352686+581589018+589820387+597586965+602931444+606628169+612814129
1618+623337526+633565613+636900825+635302084+634929962+637694549+641673745
1608+644461851+645590945+646216086+647337628+649051659+651139250+653696344
1598+657013719+661084974+665320066+668914626+671729126+674412011+677397972
1588+680328482+682668229+684395350+685931375+687927698+691390570+697461168
1578+706093535+714076524+716987183+716772714+719432871+726818408+735608211
1568+741904068+746804577+753684578+763934530+778637639+800926947+830730747
1558+852775953+856032339+853204101+852824428+854277385+855623969+856170068
1548+856619433+858973853+864810275+873821524+883593414+887379213+877283821
1538+860379413+849579694+846089995+843844609+838175548+831642135+829109567
1528+831148179+835007769+839038677+844011323+848870045+849783088+846425005
1518+841974868+837069972+831571724+827910565+828806346+834927361+845280088
1508+855993214+857686316+846488368+833809990+827769527+828118058+832028641
1498+835696848+835450230+831606462+828918184+830898612+836365502+840174244
1488+838254517+832165076+825808662+821487983+819665423+819738782+821302138
1478+824887924+830839636+837833633+842765141+842369573+837027970+831453557
1468+829605177+831851570+835213752+836187640+835739282+838235962+845698527
1458+854099307+854571040+846014550+836945044+831929389+830700540+831582296
1448+832332653+831339849+828988091+826693223+825570746+826783844+831313598
1438+837824643+841347426+838460572+833235770+830850856+831362145+831537418
1428+829866827+828194798+828018087+828654951+829528868+831158895+832576898
1418+830892858+825947254+820776105+817038349+814306127+811979901+810377060
1408+810350449+811943149+813561381+813615537+813015497+813990032+817085817
1398+820869747+823641166+824083699+821610321+817835023+815503403+815298498
1388+815210826+813233203+810544278+810362173+814072023+820168872+826362528
1378+831904792+837332341+842292473+845081513+845157175+844360645+844421850
1368+845352945+846968371+850058978+854677196+858396468+858520460+855857426
1358+853566298+853247254+853999193+854368581+854019618+853373045+852705255
1348+852077309+851595579+851591408+852619740+854919715+857775930+859829645
1338+860300803+859673001+859046277+859117264+859841512+860942054+862551008
1328+864992380+868079391+871267307+874421349+877779719+881272798+884571761
1318+887728751+891041955+894281511+896797034+898381175+899462153+900609156
1308+902312183+904838207+907704347+909848468+910821780+911374424+912588961
1298+914626711+916536871+917340089+916916904+915613185+913629952+911238924
1288+908922048+906862003+904841012+902769316+900876848+899568238+899295512
1278+899967977+900409934+899330250+896983670+895002595+894549849+895395070
1268+896801637+898551269+900791549+903422218+905996645+907823017+908485845
1258+908730234+909932112+912144199+913802635+913981647+913527967+913318820
1248+912907357+911636722+909932832+908541152+907371207+906013115+904686309
1238+903731192+902742345+901314130+900151880+900359301+901987170+903955156
1228+905175806+905281674+904356046+902610729+900721785+899828665+900251563
1218+900814564+900715672+901186829+903754783+907739157+910911107+912257907
1208+912819254+913723521+914711362+915214884+915853905+917700703+920758802
1198+924193912+927473025+930484518+933156183+935522109+937606032+939235627
1188+940462391+941682825+943192024+945053134+947229404+949609787+951930979
1178+954143928+956562717+959156563+961313414+962718830+963875974+965308361
1168+966988157+968971174+971390251+973375282+973508624+972481227+973159014
1158+976571397+980236944+981713346+981837411+982640773+984192765+985476706
1148+986540352+988096227+989999484+991448053+992541977+994424448+997566838
1138+1000976776+1003491868+1004866214+1005062919+1003713530+1001380327
1130+1000258785+1002082712+1005801768+1008447900+1008648561+1008135186
1121+1009037728+1011181417+1013216074+1014989440+1017388163+1021072193
1113+1025740684+1029912629+1031743964+1031135365+1030704915+1032435488
1104+1034683392+1035337157+1035743873+1037945819+1040576057+1040760032
1095+1037988037+1034311198+1032357669+1033502802+1036733440+1039849291
1087+1042052243+1043908319+1045648098+1047306534+1049278835+1051098374
1078+1051126999+1048871975+1046279065+1046060424+1049417355+1054734433
1070+1058454280+1058755128+1057404372+1056646967+1056576916+1056334828
1061+1055957097+1055553115+1054497236+1053118719+1053355124+1055907687
1053+1058267069+1057812454+1055862736+1055603460+1057334032+1058555258
1044+1057829139+1056795916+1057723487+1060525113+1063166068+1064356942
1035+1064912247+1066248979+1068383247+1070149564+1071316921+1072737153
1027+1073741823+1072115608+1067762996+1063721517+1062425421+1063057394
1018+1063222885+1061945058+1060150834+1059159757+1059598694+1061096961
1010+1062551499+1062899095+1061944842+1060564958+1060049929+1060685786
1001+1060901478+1058870633+1055061028+1051948485+1050984451+1051452515
993+1052192083+1052537018+1051714094+1049393981+1046458724+1043710463
984+1041140927+1039286074+1039197251+1040391362+1040721626+1039116124
975+1036640733+1034338025+1031833362+1028573380+1025156970+1022701573
967+1021721931+1021756382+1021034578+1017202606+1010376689+1004389519
958+1002672467+1004084069+1004370748+1001277767+996456516+992520401+990205395
948+988289552+985564953+982344816+979569297+977240698+975051050+973824143
938+974628656+976689420+977924598+977641947+976898927+976157202+974692954
928+972543510+971268416+972083213+974209642+975601825+975316153+974707122
918+975253869+976085784+975367792+973246830+971376586+970477928+970007705
908+969381486+968511093+967767497+967466147+967118551+966224136+965330369
898+964949545+964349073+962759178+960859158+959868801+960146561+961122966
888+961655113+960768250+958797028+957103926+956350621+955957643+955368750
878+954808482+954440245+953716140+952105388+950236366+949795992+951502687
868+953621419+953835170+952207804+950712702+950312747+950163798+949173080
858+947325923+945706325+945601607+947396046+950498736+954261016+957981727
848+960157853+959390523+956155426+952359414+949237162+946921077+945613114
838+945649147+946544640+947433014+948316784+949292758+949078504+946283062
828+941977847+939137383+939514395+942369027+946020333+949550452+952836973
818+955599618+957186707+957700082+958171168+958832341+958749775+957734892
808+956717636+956241372+956612127+958639808+962153168+964716663+963941998
798+960361894+956547830+954794314+956130757+959898792+963804700+965231045
788+963397625+960097223+957892041+957694473+958104640+957246690+955008999
778+953048781+953316616+956597240+961367643+964768950+965681273+965103888
768+963268382+959256606+953838478+949942352+949640066+952375309+956079262
758+959072271+960669502+960396200+958194470+955651977+955445059+958848595
748+964328719+969145943+971911897+972434765+970479726+966794760+963965300
738+964092529+966602371+969347035+970696569+970101851+967905011+965313899
728+963920134+964306280+965343746+965654806+965064907+964179410+963198690
718+961822042+959702590+956694046+953624656+952206653+953444493+956792866
708+961000052+964636399+965897253+963560455+958676272+954295467+952861857
698+954153134+955838972+955434630+952411773+949121872+948336131+950055556
688+951887322+952226648+951530448+950393659+948080738+943633190+937328415
678+930652383+925635577+923491887+924151550+926944834+930016813+929783644
668+923851710+916922442+915002284+916436325+917272124+916083047+914171088
658+913300624+913627434+913796594+912307964+908956067+904896751+900870015
648+896758772+892788782+889692277+887625616+885319887+882380315+879955485
638+877854301+874560588+870770114+869123689+869961934+871134540+871522628
628+871645326+871880293+872598572+874639127+877694780+879312004+877093804
618+872474220+869391021+869248833+870144758+870250338+868354706+862984694
608+855872242+852802133+856895540+863512813+865062216+860568134+856224657
##END=
