##TITLE=<SNM>
##JCAMP-DX=4.24
##DATA TYPE=INFRARED SPECTRUM
##DATE=2/5/2025
##SAMPLING PROCEDURE=Instrument type and / or accessory
##ORIGIN=Admin
##XUNITS=1/CM
##YUNITS=ABSORBANCE
##RESOLUTION=4
##FIRSTX=4497.3318
##LASTX=599.83466
##DELTAX=-1.4281778
##MAXY=1.8673903
##MINY=0.40298107
##XFACTOR=1
##YFACTOR=1.7391427e-09
##NPOINTS=2730
##FIRSTY=0.42691404
##XYDATA=(X++(Y..Y))
4497+245473837+244741949+244923867+245516266+245914049+245949007+245816287
4487+245819012+246106591+246532409+246893007+247229922+247560634+247395269
4477+246075746+243816388+242096323+242418655+244446349+246100491+245936155
4467+244584107+243443744+243055763+243233842+243871858+245015220+246452143
4457+247634216+248067403+247612573+246371329+244702981+243368910+242961119
4447+243133784+243112244+242825195+242724297+242897476+243203751+243853042
4437+245112468+246564848+247253467+246754512+245626383+244578778+243842161
4427+243503738+243545190+243350848+242108096+239890413+237731232+236696222
4417+237181468+238767134+240593015+242047588+242983259+243373057+243294470
4407+243135223+243280915+243703957+244014174+243819215+243087071+242208291
4397+241677069+241789945+242542567+243467152+243785937+243041214+241498732
4387+239982297+239337615+239755414+240519209+240765216+240407995+239862001
4377+239280449+238621442+237966941+237454260+237225337+237452272+238125245
4367+238938564+239498353+239447938+238530757+236843028+234955097+233698670
4357+233765278+235208610+237313743+239114039+239992562+239895793+239306102
4347+238899134+238878930+238738585+237863730+236298988+234764303+233952937
4337+233973312+234542303+235447061+236445605+236958475+236504451+235522991
4327+235186830+236004022+236932308+236543539+235023059+234000302+234316945
4317+235220828+235918015+236522101+237087768+236988686+235901051+234606324
4307+234160851+234654751+235356599+235855485+236405883+237193909+237889057
4297+237996981+237310795+236107902+235065489+234707530+234890614+235148925
4287+235349316+235555105+235533462+235048267+234451378+234290812+234460529
4277+234398479+234056097+233962036+234273933+234500970+234386466+234370495
4267+234821435+235452270+235889826+236306133+236983562+237614998+237522496
4257+236475354+235050991+234049603+233695928+233708043+234028182+234815865
4247+235651496+235690686+234964985+234646063+235589514+237280224+238598925
4237+239130541+239197081+238923416+238094383+236947319+236226656+236207035
4227+236412841+236495369+236612837+236752412+236554095+236067666+235894642
4217+236275168+236744598+236879391+236709863+236350842+235844244+235295679
4207+234797752+234468120+234553527+235056595+235593438+236019342+236486475
4197+236665428+235992712+234815728+234141247+234308376+234792183+235046947
4187+234926634+234534575+234033614+233584149+233438371+233865817+234730510
4177+235492832+235932324+236398926+237163972+238091470+238926535+239296351
4167+238692728+237156210+235624832+234960564+235026641+235195347+235307812
4157+235637838+236209125+236627900+236580878+236237417+235991855+235905403
4147+235703230+235300478+234910629+234638574+234444387+234465653+234853771
4137+235313655+235334322+234899730+234532141+234709878+235520986+236629083
4127+237306768+236867584+235429650+233949835+233335828+233742727+234575342
4117+235015691+234869862+234836669+235461866+236172317+236081598+235306938
4107+234665615+234551248+234830054+235336686+235837869+235925281+235479637
4097+234970331+234935082+235303819+235579815+235518639+235212826+234788105
4087+234467212+234634222+235359289+236070271+236066346+235239764+234145154
4077+233493635+233597515+234186075+234721308+234825907+234416643+233642755
4067+232841311+232408998+232463663+232692329+232744663+232676461+232767762
4057+233109664+233617924+234148478+234467469+234469971+234466167+234827672
4047+235389603+235615870+235246636+234460632+233557193+232729874+232077276
4037+231712480+231818330+232531300+233720519+235004158+236053289+236719031
4027+236860610+236343113+235347928+234436453+234104781+234373957+234845494
4017+235110591+235113744+235035689+234866126+234403225+233722712+233301333
4007+233540503+234318213+235052791+235236251+234959827+234763771+234958593
3997+235398103+235850790+236233442+236534131+236703608+236599351+236192246
3987+235863728+236081135+236761374+237341178+237366283+236816810+236192400
3977+236239576+237133795+238187587+238713120+238619968+237978508+236898772
3967+235982156+235975884+236837647+237767236+238201142+238288074+238355128
3957+238431710+238468055+238614861+239084205+239914181+240847967+241408596
3947+241427839+241447512+242046902+242893448+243018937+241999932+240398176
3937+239189027+239121374+240304989+242094078+243430737+243600009+242828365
3927+241993403+241754850+242100659+242734544+243614780+244750449+245613788
3917+245281757+243522176+241318065+239895416+239619266+240065288+240975238
3907+242781669+245912867+249729084+252662753+253681981+252881702+250811973
3897+248363671+246756877+246694261+247649536+248229700+247870902+247812416
3887+248947776+250035017+249586888+248796395+249412030+250254292+249312332
3878+247485765+246910451+248049787+250332211+253218977+255428504+255521365
3868+254414537+254116624+254510791+253936351+252117530+250606784+250804845
3858+253206005+257724551+263010901+265233091+262234134+257296968+253323680
3848+251028181+250599073+251980886+254464986+257158919+259693022+261575709
3838+261629071+259647799+257357202+256277157+256336329+256778992+257318131
3828+257962196+258736718+260288043+263340482+266640334+267430708+265902997
3818+264573090+263626349+261595313+258895502+257441769+258356397+261322230
3808+264523224+266152484+266925207+268508645+270387956+270993653+270859425
3798+271119107+271221256+270660542+270478744+271725061+274124302+276925507
3788+280068855+283863669+288058700+292266635+296952018+302722570+309083293
3778+315316968+322034912+330311738+340337452+351563557+362939947+373098980
3768+381439998+388053035+392487510+394653116+395774956+396727249+397024117
3758+396608050+397095404+400305394+406648775+414298072+419852228+422607765
3748+425899187+432271596+440446153+446574201+450497023+455967416+465038643
3738+477396150+491284537+503427464+511041838+515195862+519378332+525960832
3728+535690021+548022646+560541473+569973794+574760144+575816352+575476575
3718+575791196+577355115+579399945+580395011+579112468+576425167+574306240
3708+572824197+571232791+569926669+569512966+569635662+569915736+570923860
3698+573053685+575653900+577907518+579982165+582746374+586007944+587818487
3688+587265605+586068332+585731365+586306662+587125636+587286922+586380759
3678+584855705+583330513+582337298+582295074+582860432+582822458+581205622
3668+578510301+575788728+573622950+572125691+571228233+571077263+571777312
3658+572399322+571453780+569386398+568476602+569666747+571780053+572785298
3648+571436815+568248417+564500110+561134660+558485333+556419082+554984952
3638+554971723+557069162+560573792+564019953+567023074+569847774+570981609
3628+568551248+564838653+563054259+563534484+565590144+568771620+571695469
3618+572359052+570790745+569099058+569044325+570622502+572524039+573702257
3608+574371323+575586452+578016093+581336749+584507360+586280341+586389122
3598+586056336+586634786+588163131+589583860+590226468+590903623+593280964
3588+597676677+601803626+603254789+602119344+599953806+598208585+597761947
3578+598798414+600516696+601108376+599328334+596407227+594911441+595736584
3568+597237373+597524576+596921861+596806500+597191380+596843583+595188019
3558+593223798+592098086+591609566+590901841+590152714+590771263+593582219
3548+597416824+599688606+598667630+595548360+593157652+592955787+593977380
3538+594146000+592717251+590971482+590098632+589525460+588023231+585593042
3528+583353201+582043172+581530114+581506808+581796479+581826159+580654864
3518+578080731+575177102+573373687+573131381+573316315+572266311+570158008
3508+569240261+570729706+572690295+572385784+570079558+568194061+567601730
3498+567206261+566071398+564437631+563431016+564100836+566036474+567505493
3488+567618558+567005664+565845919+563403152+560052679+557651210+557286552
3478+558175955+558993147+559052336+558144425+556377955+554554285+553714336
3468+553851872+554005344+553803205+553773285+554024742+553775307+552355195
3458+550046878+547739247+545916639+544299015+542748393+541965542+542500295
3448+543491077+543314060+541512838+539293081+537954606+537562186+537372660
3438+536967183+536419235+535762918+534918788+533833826+532434654+530874916
3428+529819051+529917893+530805788+531074176+529544734+526549016+523882484
3418+523335427+525075884+527324121+527810858+525962751+523429299+522191585
3408+522597816+523440472+523463195+522496986+521311812+520517822+519993351
3398+519604325+519693193+520242443+520409590+519650250+518493864+517520938
3388+516471277+514924493+513234177+512334217+512635129+513347036+513256111
3378+512190170+511195002+511174541+512099691+513554933+515101373+516061790
3368+515918257+514972338+513946084+513159018+512514388+511942826+511554417
3358+511395701+511137664+510395906+509479564+509193355+509632008+509797441
3348+508729992+506739175+505327254+505723100+507490529+508985116+509226805
3338+508585191+507638004+506498308+505348777+504602700+504275673+503812481
3328+502854669+501871428+501512767+501503342+501007934+499993950+499251952
3318+499220901+499682585+500352919+501091661+501772586+502328862+502650200
3308+502407414+501448746+500352851+499985005+500213979+499729024+497886984
3298+495940173+495360934+495919198+496518828+497007553+497956591+499299350
3288+500279165+500441685+499932328+499018008+498037919+497733786+498674187
3278+500197082+500964305+500662159+499987301+499216685+498234403+497501487
3268+497602077+498160272+498233855+497535143+496564479+495836875+495489045
3258+495413302+495469098+495649440+495986337+496090971+495234263+493420018
3248+491823745+491523964+492318125+493243309+493722609+493753009+493341054
3238+492279534+490611975+488950379+487836320+486986021+485714993+484086196
3228+483017068+483063953+483601001+483434677+482080539+480259817+479136675
3218+479181812+479784492+479900265+479094554+477939025+477289665+477352864
3208+477656757+477639998+476909858+475327637+473292780+471580084+470727078
3198+470575594+470253536+468949812+466991177+465560681+465176898+465259323
3188+465225496+465071647+464883594+464602218+464211272+463647319+462681419
3178+461129427+459057076+456739300+454625377+453283988+452987497+453292316
3168+453399246+453070814+452757015+452714415+452603406+452056864+451084144
3158+449836319+448424123+446960931+445597162+444571457+444072759+443953457
3148+443796934+443207551+441917743+440033068+438300802+437548625+437715566
3138+437966886+437735033+437058324+436082622+434923803+433894841+433379007
3128+433407008+433418180+432634370+430931887+429120041+428120657+428145607
3118+428758638+429345519+429383048+428578057+427033330+425294004+424024690
3108+423423483+423023182+422297052+421356993+420771791+420778783+420903363
3098+420461009+419370049+418219078+417530819+417242622+417002475+416785085
3088+416964056+417693853+418433863+418434001+417607727+416462239+415297388
3078+414011144+412570022+411220134+410295395+409978341+410147990+410476251
3068+410695697+410656935+410291865+409727604+409242067+408973542+408788334
3058+408398142+407568681+406409313+405361914+404665052+404147573+403685341
3048+403351116+403090543+402745831+402270061+401650895+400945603+400373767
3038+399922091+399165458+398002389+397024151+396621039+396366943+395736399
3028+394828557+394041593+393527198+393178408+392816148+392294214+391638822
3018+391067740+390713946+390417318+389914370+389154448+388330093+387649477
3008+387152047+386715690+386230838+385739783+385301576+384765281+383913439
2998+382873443+382109339+381845098+381719353+381216576+380281556+379278985
2988+378481705+377832654+377177571+376517861+375915660+375278021+374476458
2978+373687678+373267258+373176230+372931902+372343719+371862637+371878231
2968+372069985+371811125+370922955+369747102+368752551+368255635+368223350
2958+368221945+367781579+366852419+365782742+364985188+364719371+364923772
2948+365118200+364753198+363798574+362740310+361996907+361631117+361525695
2938+361454888+361114358+360490599+359985150+359796720+359536935+358846619
2928+357930586+357107568+356314949+355368036+354315462+353344866+352604205
2918+352147148+351876841+351622197+351359156+351211990+351181180+351038538
2908+350623601+350135973+349902784+349903949+349799966+349408541+348879992
2898+348412756+348003748+347475645+346695604+345813877+345191421+344967760
2888+344882832+344689502+344459397+344249101+343846092+343189260+342650806
2878+342504120+342478108+342167257+341502371+340629179+339805338+339457267
2868+339772334+340278023+340309794+339730144+338836319+337887384+336987664
2858+336152651+335382584+334792070+334530708+334546131+334669237+334818425
2848+334869663+334610803+334074851+333562786+333200972+332847041+332441975
2838+332087975+331831172+331661078+331607270+331612171+331471688+331078138
2828+330556375+330064051+329626152+329197027+328725267+328186539+327644863
2818+327163096+326654870+326068949+325642154+325596606+325676324+325410849
2808+324740721+323995432+323388331+322898509+322517297+322266971+322031622
2798+321633137+321076107+320537104+320110138+319711207+319241024+318743080
2788+318383322+318273856+318298772+318196846+317852991+317359330+316786227
2778+316115413+315404637+314822006+314484319+314301956+313990556+313343904
2768+312508856+311827041+311452135+311273370+311039220+310451688+309437807
2758+308380263+307760857+307602656+307535893+307313259+307029655+306874743
2748+306785944+306425843+305586271+304491987+303539419+302883685+302416140
2738+301972587+301478447+301018648+300741144+300619374+300456957+300161323
2728+299804136+299421724+298983791+298519502+298083660+297663857+297245425
2718+296868634+296544656+296217560+295840255+295402905+294911027+294424016
2708+294059460+293854168+293675814+293384259+293039855+292804301+292646270
2698+292336893+291790591+291217659+290847379+290664707+290490946+290175126
2688+289674542+289081218+288559866+288170154+287834627+287536560+287354402
2678+287217432+286901098+286402160+286029481+285975913+286060926+286000332
2668+285702608+285274648+284917444+284771666+284755935+284657179+284405482
2658+284121741+283923235+283778537+283508367+282950686+282209545+281617866
2648+281363736+281322677+281305301+281246849+281101260+280774850+280277762
2638+279808196+279567175+279546423+279588235+279585596+279503497+279294281
2628+278960313+278643122+278486599+278422956+278230362+277839502+277467183
2618+277350828+277461648+277603947+277664832+277624048+277448950+277092243
2608+276530226+275842139+275289410+275125074+275265351+275359892+275222579
2598+275022599+275051868+275376462+275689986+275578138+275009405+274416526
2588+274208064+274368202+274597947+274677545+274584718+274356566+274009798
2578+273634086+273405935+273408796+273538038+273621200+273553649+273345787
2568+273112888+272979654+272987742+273119914+273333294+273561429+273791602
2558+274077571+274370618+274481215+274305757+273943789+273547994+273198038
2548+272918701+272701893+272502753+272247698+271880452+271462499+271191816
2538+271204634+271374162+271410885+271159240+270712961+270236952+269786064
2528+269370253+269090282+269052377+269207408+269412820+269581286+269653926
2518+269539919+269226035+268882351+268742948+268878204+269113347+269189603
2508+269008474+268692585+268408261+268204100+268044750+267910111+267798863
2498+267710765+267687409+267790569+267988612+268143249+268143643+267984893
2488+267731089+267482477+267336459+267305185+267307824+267274649+267206875
2478+267118092+266972229+266725227+266417649+266150307+265934597+265671933
2468+265339147+265066613+264967789+265013645+265091975+265070143+264852839
2458+264513165+264278844+264265684+264324375+264232542+263927089+263500055
2448+263095503+262848313+262805455+262859280+262838391+262690746+262511312
2438+262381008+262272965+262176950+262196057+262372200+262505812+262340807
2428+261889850+261423334+261177515+261172391+261258912+261295566+261300742
2418+261393808+261585957+261751818+261814982+261822265+261829702+261841201
2408+261852665+261863443+261850471+261796047+261742085+261775706+261958361
2398+262289621+262738076+263356573+264474968+266753125+270897604+277361676
2388+286484293+298796561+314878281+334859826+358242739+384263361+412299167
2378+441815782+472018634+501749966+529701805+554472888+574615446+589587562
2368+600683055+609641731+616484564+620003245+619839834+616604997+610056016
2358+598676336+581867080+560840328+537202497+513772323+495453710+486361269
2348+487693746+497964268+512975043+526844650+536031340+541097182+543940217
2338+545678377+546639753+547044476+547416469+548067200+548286920+546924180
2328+544016542+540716963+537399427+533131584+527200123+519908972+511695996
2318+502671689+493145736+483761739+474966988+466518801+457525852+447199021
2308+435641981+423670176+411994588+400891932+390439664+380662254+371462335
2298+362618540+353935278+345415803+337272297+329722389+322812759+316474279
2288+310652353+305350477+300637436+296608197+293233803+290274961+287455043
2278+284706308+282171245+280004731+278254215+276871494+275725544+274610182
2268+273358450+272013874+270822907+269988682+269470706+269070524+268648030
2258+268170359+267611444+266945239+266240187+265620730+265095745+264542896
2248+263901728+263267928+262776255+262488144+262370093+262280505+262045379
2238+261653936+261294795+261104241+260989394+260788694+260492015+260204384
2228+259977552+259773905+259570481+259416923+259360288+259352611+259291606
2218+259145931+258977105+258850434+258790937+258803361+258857357+258875367
2208+258803584+258668756+258523544+258394114+258319434+258359259+258501849
2198+258623174+258605369+258473352+258370586+258415928+258599063+258785231
2188+258816128+258645554+258386060+258197013+258141955+258171943+258204862
2178+258196671+258183304+258253940+258421326+258546729+258485193+258272361
2168+258067035+257953645+257911730+257920092+257965075+257984610+257928283
2158+257844676+257812562+257819571+257789514+257689678+257548853+257410461
2148+257294055+257178539+257057918+257031339+257238191+257663837+258119866
2138+258440467+258620706+258797980+259175628+259886798+260871222+261958207
2128+263052937+264145696+265232166+266375683+267741765+269410266+271218874
2118+272891248+274276180+275413305+276403059+277243967+277807508+277967612
2108+277692507+276996931+275923861+274625228+273319448+272087543+270843574
2098+269571141+268436707+267578971+266923562+266306949+265668283+265016387
2088+264323655+263598057+262984872+262644238+262554324+262555901+262557700
2078+262582530+262647288+262716981+262770994+262826344+262888943+262947292
2068+263023874+263165419+263351706+263479029+263486963+263440027+263442905
2058+263539913+263722089+263949366+264148746+264268185+264345247+264458449
2048+264617062+264770037+264924263+265156681+265474969+265763629+265919774
2038+265962871+265992860+266121004+266412714+266808441+267144311+267311903
2028+267357502+267419758+267611855+267944692+268358309+268825356+269320370
2018+269691215+269779929+269688833+269681190+269843419+270076951+270333343
2008+270645085+270994544+271299106+271485051+271526606+271442347+271265776
1998+271060141+270991562+271247234+271761338+272168820+272209004+272047855
1988+272018278+272215927+272503833+272743089+272881121+272930319+272970503
1978+273106171+273351047+273587236+273697422+273764716+274069517+274753749
1968+275521109+275889246+275771486+275536874+275490555+275617963+275829047
1958+276143651+276563059+276968913+277244412+277411165+277603450+277939252
1948+278471314+279260197+280323927+281372903+281838529+281501785+280833318
1938+280404707+280343668+280508039+280796955+281144272+281459715+281705860
1928+281977298+282472277+283262839+284080408+284624260+285047782+285612694
1918+285999527+285671711+284833322+284263183+284395629+285022095+285635571
1908+285898081+285860775+285775814+285771975+285806059+285859353+286066941
1898+286598335+287362490+287979976+288312728+288748467+289522716+290154494
1888+290123991+289702817+289475522+289568778+289773487+289972575+290190582
1878+290479842+290885524+291459313+292373153+293932515+296136506+298140621
1868+298716980+297732813+296344608+295545821+295430494+295617347+295824250
1858+296040783+296370450+296822709+297328398+297937248+298797863+299985026
1848+301597989+303738473+305859286+306614753+305519372+303865007+303003604
1838+303147308+303755164+304419741+305379403+307045077+309065643+310401136
1828+310721618+310698690+310597175+310035073+309115475+308549260+308705645
1818+309328307+310053545+310825840+311769669+312822175+313645913+313996246
1808+314067601+314330882+315176897+316714803+318635362+320267209+321119907
1798+321485765+322235989+324000813+326463321+328191303+327958319+326518706
1788+325585467+325904544+327141641+328726158+330327846+331666253+332533208
1778+333240488+334572829+337087192+340404043+343038804+343731073+342893524
1768+341558270+340451716+340413571+341967791+344375121+346207325+347150331
1758+347854903+348528871+349328241+351072604+354267000+357915438+360180914
1748+360596947+360341754+360520896+361511369+363229549+365155111+366614877
1738+367946977+370497669+374530780+377648063+377511898+375577768+373916275
1728+372953939+372716431+373259649+374371961+376124002+379257393+384166781
1718+389425954+392023598+390908339+388214321+386097107+385482740+386618014
1708+389251336+392429795+395113943+397688591+401514011+406400505+409863254
1698+410726097+410198370+408669100+406587256+405605248+406561997+408946158
1688+412434303+417606835+423964371+427814810+426804836+424199685+423322997
1678+424953850+428383252+432053315+434854298+437372602+440263687+442392793
1668+442571387+442258753+443545375+446441189+449207317+450675342+451797764
1658+454343040+459512659+467562465+476188355+480005550+479543249+480573135
1648+484444891+488405208+489815038+490045726+491613381+495273917+500943639
1638+508366910+516236031+521735350+524070091+526302151+530925982+538009202
1628+546360262+555227430+565010974+575887158+586658571+596325590+605798763
1618+616383666+627356875+636492122+643720726+650620451+657495706+663475011
1608+668041606+671695253+675327993+679237997+682835917+685512182+687479900
1598+689425545+691828797+694816873+698213544+701654565+704829631+707602613
1588+709997639+712181478+714366346+716672058+719092171+721667058+724738896
1578+728744315+733414962+737684963+741494001+746019675+751708419+757850792
1568+764065343+771363245+780633046+791388625+803017123+816359722+831702186
1558+844025661+849386348+851758480+854105182+856184901+857240218+857221505
1548+856964873+857624412+859432694+861666708+863603854+863489932+858453942
1538+850473401+844650036+841990221+840240134+837298600+833798905+831612324
1528+831164383+831586483+832314909+833492372+834572434+834347332+832921394
1518+831159380+829038670+826872653+826087883+827635900+831009746+834807680
1508+837075760+835574148+831110850+827837148+827541788+829216407+830824607
1498+830543504+828348012+826138058+825573522+826703690+828483320+829557144
1488+829155265+827673462+826147722+825402023+825446234+825528145+825120098
1478+824699849+825266510+827201942+829260687+829058548+826306198+823746596
1468+823370628+824660299+825652760+825174317+824526088+825887458+829775733
1458+833635700+832995422+828156292+824042847+822629589+822697448+822395303
1448+820864216+818789980+817457811+817293098+817711358+818268285+819250670
1438+820575848+820910621+819595999+818151074+817538900+816887038+815541502
1428+814357801+814130712+814478235+815019465+816087120+817598122+818320311
1418+817369868+815635957+814024605+812296795+810373769+808976756+808755767
1408+809627178+810852280+811288568+810286100+808599074+807517025+807512843
1398+808190683+808826917+808707237+807726361+806970448+807775233+810052156
1388+811809509+810886690+808055650+806614426+808540742+813026386+818229009
1378+823110020+827306747+830246636+831556734+832118596+833368923+835584636
1368+837918657+839930105+842109558+844692876+846977682+848280857+848751966
1358+848737571+848136707+846830036+845319856+844427745+844427676+844976241
1348+845674713+846189896+846234861+846063636+846507601+847970760+849802416
1338+851035743+851516380+852041982+853529885+856046989+858660262+860506380
1328+861736349+862992640+864525988+866418169+868999294+872233789+875215284
1318+877088547+878263543+880024392+883128857+887160391+890935773+893565634
1308+895421349+897683809+900738168+903785946+906262677+908485039+910648657
1298+912500739+914011399+915213402+915733932+915472844+915070692+914906115
1288+914451732+913227520+911595125+910036072+908356243+906242799+904132509
1278+902819738+902399284+902237723+901921183+901727270+902324912+904328821
1268+907798219+911822214+914950944+916381064+916436242+915940869+915688966
1258+916380652+918403959+921386415+924289358+926294775+927414935+928006409
1248+928060285+927468674+926676433+926402185+926666288+926610150+925567171
1238+923930251+922559423+921772185+921396422+921495607+922479774+924314103
1228+925905783+925870688+924153639+922246173+921260087+920611378+919252819
1218+917376541+916204972+916479700+918004617+920581835+924274278+928378881
1208+931252282+932062208+931998667+932924776+935349756+938203210+940308771
1198+941755890+943571643+946206370+948857548+950376160+950618192+950682898
1188+951786813+953952625+955840899+956279311+955765431+955850426+957333052
1178+959667826+961791826+963121048+963918019+964712042+965618137+966631230
1168+968187609+970700944+973742416+976268294+977565780+977910081+978362340
1158+979649406+981587855+983762852+985973492+987902276+989140264+989519523
1148+989066373+988255076+988377017+990660109+994833395+999193533+1001980498
1138+1002868703+1003492392+1006024028+1010675825+1015007654+1016372931
1130+1014400895+1011147276+1009406305+1010472109+1013372379+1015919780
1121+1016681657+1016238788+1016151873+1016619349+1016645876+1016569106
1113+1017780294+1020011497+1021714014+1022862072+1024831092+1027865435
1104+1030969764+1033849676+1037130438+1041190967+1045611562+1048832828
1095+1048557688+1044121877+1038392623+1035292956+1035773181+1038075535
1087+1041113443+1044930020+1048604162+1051108174+1053326560+1056293181
1078+1058835510+1059330404+1058384211+1057711306+1057579151+1056901311
1070+1055150059+1053418684+1053393871+1055316211+1057553721+1058611026
1061+1058917284+1060063080+1062976168+1067011746+1070322600+1071349813
1053+1070258853+1068628925+1067383259+1065780818+1063861356+1063832224
1044+1066653668+1069308959+1067810979+1062420817+1057380782+1055525342
1035+1055684297+1056049710+1057560507+1061372355+1065201271+1065740513
1027+1063271596+1060853471+1060379963+1061211343+1061834964+1061855322
1018+1062701920+1065904061+1070575462+1073741823+1072935187+1067839837
1010+1060769846+1056006732+1056227721+1058850521+1058291264+1053093576
1001+1047871075+1047025985+1050009469+1053403193+1055253767+1055773406
993+1055460361+1054329714+1052106187+1048850649+1045494899+1043379878
984+1043731514+1046986435+1051727340+1054926465+1054770731+1052535826
975+1050106254+1047542265+1044340603+1040821442+1037144216+1032921715
967+1029028984+1027295554+1027338051+1026650409+1024437370+1022531275
958+1022237766+1022754388+1022952620+1022905530+1022597626+1020602011
950+1015959262+1010653753+1007873985+1007754100+1006755265+1002276749+996450368
940+993461401+994516238+997068985+998296349+997772804+996297033+993909547
930+989933328+984084190+977460358+972623421+972157453+976406823+982393257
920+985606434+983775807+978699854+974221065+972927761+974701085+977605947
910+979345958+978711027+976565436+974943391+974973825+975652761+975051143
900+972909116+970944552+970435675+970826244+970663861+968920560+966062308
890+964164095+964392007+964884227+963539514+961827332+962557061+965422647
880+967640553+967760369+966577834+965142024+963871134+963073752+962897317
870+962810814+962123514+961157923+960972783+961982586+963394199+963815202
860+962199599+958986011+956470140+956733490+959378978+962462126+964795462
850+965841730+965108712+963105008+960739183+957861464+954450877+952176696
840+952596396+954686809+955922604+955476857+954759809+955318518+957077859
830+958413798+958526966+958929119+960930149+962722391+961666389+958846522
820+957670498+958879903+960448484+961692710+964351839+969089934+973390507
810+973860108+970157452+965682775+963651928+963395090+961813006+958354438
800+956263752+958399335+963952017+968938518+969388790+965388100+961286171
790+960930286+963777228+966545001+967831176+968739670+969718011+969563647
780+967587294+964956405+963652202+965002399+968904109+973582775+976871695
770+978315798+978258220+975766203+969661530+961618065+955642461+954493444
760+958095956+964134552+969696419+973183913+974180555+971910966+966358353
750+960557265+958797170+962254504+967782030+971663862+973897739+976881496
740+980912757+983779303+984547416+984592313+984134159+981168772+975157045
730+968994794+965867229+965691206+965550140+963659947+962053599+964008430
720+969582018+975519305+978295988+975915220+969349034+963051269+961314068
710+964092397+967361644+967255262+963380422+958285277+954170392+951103009
700+949062840+949582136+954086630+961730136+968659335+969531157+962488173
690+952171075+944441340+940748829+939482531+939463956+939860762+939572188
680+939155846+939934105+940700505+939520368+937535377+936558613+934596997
670+927649495+918109079+916116480+923102847+930883305+933971730+932028963
660+927599389+924069672+922880418+921887409+917864923+911016812+904952648
650+902161296+901657217+900377005+897168626+894561179+895261022+898460422
640+901109544+902008304+902530684+904807744+910696364+918913933+922259745
630+914622682+901017693+891729797+890830420+894439581+896386392+893638223
620+887448074+881860777+880668919+885355605+895080132+906140393+911879174
610+908232862+900488047+897037431+898121125+896483794+888143393+875047075
600+861992227
##END=
