##TITLE=<SNM>
##JCAMP-DX=4.24
##DATA TYPE=INFRARED SPECTRUM
##DATE=3/5/2025
##SAMPLING PROCEDURE=Instrument type and / or accessory
##ORIGIN=Admin
##XUNITS=1/CM
##YUNITS=ABSORBANCE
##RESOLUTION=4
##FIRSTX=4497.3318
##LASTX=599.83466
##DELTAX=-1.4281778
##MAXY=1.7042294
##MINY=0.17671268
##XFACTOR=1
##YFACTOR=1.5871873e-09
##NPOINTS=2730
##FIRSTY=0.19786844
##XYDATA=(X++(Y..Y))
4497+124666093+125513022+126253241+126419069+125911297+124831433+123520604
4487+122474839+122006573+122243556+123288636+124847036+125925999+125651275
4477+124404448+123562589+124020180+125320785+126303150+126385599+125979475
4467+125683384+125562198+125514768+125841982+126795159+127831940+128012563
4457+127188336+126265343+126021085+126115119+125744915+124884130+124204625
4447+123995367+123814377+123171008+122115620+121158838+120779508+120978421
4437+121332110+121479151+121372771+121078173+120636241+120235507+120292738
4427+121018950+121864677+121828062+120531889+118699835+117392584+116974537
4417+116955882+116757299+116483551+116682933+117369536+117735167+117019282
4407+115364547+113630170+112619105+112602928+113322174+114228043+114807186
4397+114898159+114752526+114715273+114913153+115310554+115858218+116346105
4387+116339646+115663784+114726032+113973044+113382983+112833029+112428135
4377+112173484+111939759+111907717+112439899+113517068+114685437+115348117
4367+115056729+114004017+113037396+112698296+112648340+112400242+112096996
4357+112191791+112741980+113336783+113583163+113497240+113354254+113306007
4347+113341740+113367877+113136631+112493750+111786465+111568889+111940398
4337+112507824+112839976+112758081+112394496+112072793+111994250+112156331
4327+112619105+113419100+114139294+114184302+113616191+113063843+112793428
4317+112618138+112568867+112740403+112719992+112119125+111399607+111337005
4307+111966028+112724367+113350621+114103534+115221609+116447059+117129587
4297+116832819+115868226+115121857+115287666+116328990+117683587+118851158
4287+119632254+119879592+119371773+118168667+116847625+116045901+115847449
4277+115871193+115869146+115920266+116099941+116341693+116610774+116852244
4267+116826472+116400258+115868329+115571684+115464412+115462224+115801981
4257+116597508+117469963+118004699+118215037+118424520+118975282+119877470
4247+120574757+120492542+119910762+119670343+120026971+120475493+120611127
4237+120484356+120216401+119855304+119564254+119542173+119806860+120216298
4227+120594707+120777049+120631097+120131661+119486866+119163435+119535601
4217+120400217+121178272+121639571+121971198+122169932+122001203+121537125
4207+121181980+121202475+121542232+121987524+122367483+122683421+122962623
4197+122971467+122429014+121573364+121077741+121272991+121787110+122100457
4187+122213569+122508910+123061492+123454012+123388434+123128648+123133511
4177+123549239+124239268+125028298+125745741+126286044+126723234+127111764
4167+127296509+127230912+127131564+126950330+126265578+125104804+124214051
4157+124145187+124662422+125204396+125459771+125564264+126009612+127036610
4147+128023238+128019492+126996888+125955075+125695035+126036801+126319552
4137+126240764+126023695+126003350+126269305+126711058+127269733+127932949
4127+128481082+128548360+128079230+127449615+126992898+126674255+126386866
4117+126332911+126838458+127838971+128867021+129627332+130223918+130670712
4107+130669135+130166198+129703800+129858399+130538758+131136462+131303022
4097+131255798+131232712+131070518+130639008+130231814+130128438+130182205
4087+130168404+130178347+130438274+130988745+131655462+132195296+132419838
4077+132252518+131754801+131141597+130701243+130579598+130640735+130602487
4067+130339809+130101615+130335161+131154131+132091892+132521628+132235037
4057+131553598+130976587+130764775+130851927+131118737+131554068+132043870
4047+132306126+132237393+132036097+131878127+131800100+131884464+132193212
4037+132555595+132722352+132695257+132713611+132959944+133366856+133669389
4027+133634248+133305100+133028864+133137479+133588855+134058266+134355437
4017+134529132+134575886+134376993+133987393+133718330+133834512+134257084
4007+134614670+134625739+134446458+134492818+134881216+135253542+135220072
3997+134791200+134279147+133910304+133714575+133755180+134173555+134939002
3987+135826441+136638745+137198942+137298966+136949886+136504312+136407931
3977+136955162+138067782+139137873+139482362+139083993+138467869+137941555
3967+137488133+137250672+137550706+138368963+139157861+139384732+139121462
3957+138845922+138827671+139082444+139757151+140956370+142123415+142295429
3947+141419989+140747985+141280007+142420032+142714800+141639555+140039677
3937+139137817+139746308+141885409+144547821+146178024+146113676+145384507
3927+145436284+146410246+147127314+146804963+146221521+146543956+147650662
3917+148163466+147052432+144828196+142784378+141632007+141416843+142458590
3907+145622719+151158725+157442057+161712487+162603072+160581447+156413041
3897+151472955+148177117+148222387+150756093+152596024+151767910+150566044
3887+151916989+155013793+156919545+157461050+158248240+158099941+155244776
3878+151997391+151733201+154552662+158499042+162332930+165020812+165114377
3868+163502049+162813428+163383643+162982870+160454459+157583297+156812602
3858+159594969+166554915+176158486+181253632+175621019+165140026+157089391
3848+153627322+154413404+158000236+162573029+167160693+171628054+175012124
3838+175553141+173435435+170779811+168550572+166406297+164517762+163506255
3828+163149552+163143036+164931228+170231641+176936729+179609628+177760806
3818+175957593+174876650+171495189+166075055+162322302+162782747+167339880
3808+172966127+176097856+177668724+180851038+184556361+184779204+181946665
3798+179340837+177087751+174025083+171184771+170331440+171560608+173877554
3788+176671319+179633868+182198199+184398279+187290472+191120003+194350010
3778+196015795+197500703+200726335+206541627+214543630+222838964+229275318
3768+234088116+238951969+244281974+250272586+258327558+269093827+280663124
3758+290826489+300519381+312855543+330099381+351147515+369900371+381492013
3748+389853029+400325872+411661098+418040859+420046598+424397750+434956779
3738+451414658+469774666+483789267+489960906+490443320+489514957+489727510
3728+491629677+494466478+496949487+498594336+499698450+500556137+501950879
3718+505110717+510551074+518240856+528259601+539139714+546822999+549368797
3708+549425203+550709462+555653135+564039837+572556212+577926531+580191165
3698+580992222+582046089+585625851+593527211+605197076+616827924+622476178
3688+619840927+613605147+608783711+606708347+607210852+610775668+618639173
3678+630033020+637671391+632959537+621324370+613347679+610908721+609953957
3668+607735777+605313342+604112077+604510821+607122038+612898650+621207616
3658+628219292+629735182+627953300+629920472+639451433+653508358+662135854
3648+658664621+649565151+643231356+641310338+641664243+642841850+645501999
3638+650340183+656153636+660930457+664457870+668714424+674842575+679946189
3628+679425245+674091578+669159509+668769703+673992286+682351424+689317097
3618+692525153+693600990+694841461+697002222+700070804+703581167+706277894
3608+706940264+705739975+704261264+704267047+706481509+709565113+711003718
3598+710313557+709814770+711343277+714264424+717466021+720710956+723216909
3588+723354130+720826696+716900389+712495498+708623644+706991337+708669835
3578+712450884+715527278+716070829+714563201+712805616+712502633+714503340
3568+718141536+721354625+722664571+721754646+718350560+713678137+710715456
3558+710698106+712393728+715035701+718578811+721795354+723316502+723649452
3548+723720729+722974764+720664389+718036386+717618489+720038971+722577897
3538+722185837+719168027+716406709+716075711+717887674+719765656+719749057
3528+718071161+717043618+717839905+719242684+720322501+721398863+721625837
3518+719017587+714069371+710357795+710124963+711857236+713119339+713591688
3508+714069070+714511076+714835765+716104327+719185978+722719098+723745890
3498+721118337+717261054+715610421+716867942+718168049+716652234+713022300
3488+710095821+709519974+711262687+714543823+717666933+718637920+717456107
3478+715977546+715128383+714427182+713693008+713119038+712564672+712297215
3468+713205036+715230454+716797266+716722610+716022911+717008693+720342855
3458+723545053+723465064+720199851+717124584+716674090+717592127+717187599
3448+715363319+714307761+714666999+714981924+714481484+713462729+711785359
3438+709819201+709468750+711600820+713975787+713825197+711593460+710496218
3428+712546721+715695067+716005936+712932172+709935317+709627978+711267870
3418+712975809+713857493+713804317+712980240+712225562+712700541+714406227
3408+715546355+714211173+711004093+708549813+708126584+708869169+710366808
3398+713308534+717356140+720398885+720783434+719562040+719266868+720794550
3388+722436244+721969753+719155109+715947803+714730164+716121526+718197867
3378+718872330+718378950+717821504+717134874+715921366+714569735+714174521
3368+715818243+719089014+721995365+723231030+723206770+722029238+719136707
3358+715585411+713714038+714587611+717148092+719703692+721499882+722853015
3348+723921641+723574645+720463102+715528254+711989425+712154811+715047718
3338+717516869+717802051+717536247+719268145+722774077+725182692+724593851
3328+722053873+719373596+716650432+713299596+710454984+710396851+713872515
3318+718912888+722655257+723724634+722231878+718932341+715562879+714436870
3308+716069177+718180817+718853253+719140388+720454690+721726556+721448884
3298+720445451+720256106+720426825+719328982+716649906+713806345+712537408
3288+713712161+716792009+720190312+722563176+723508551+723269935+722717972
3278+722950053+723782317+723350375+720527243+716996901+715369552+716026591
3268+716780067+715715647+713539414+712194769+712340401+713129028+713586882
3258+713758952+714772300+717325346+720016814+720709078+719342651+717592352
3248+716464992+715660142+714880679+714452343+714917106+716562030+719042222
3238+721337726+722334174+721625537+719818982+718113146+717307996+717109562
3228+716404831+714345765+711332612+708867292+708468547+710646658+714389177
3218+717574627+718679755+717803854+715386827+711431003+707070125+704859718
3208+706208945+709770456+712736517+712935551+710266840+706802593+705074525
3198+705850308+707986734+710087634+711407419+711739468+711287172+710061572
3188+707378816+703156361+699335579+698365419+700316630+702525309+702534998
3178+700800621+699654560+700365901+702127692+703172133+702247938+699554066
3168+696432383+693841408+691655336+689763459+688824543+689402343+691108180
3158+693112717+695134304+697342758+699166287+698871717+695325753+689827601
3148+685083601+682787797+682914728+684443537+686047903+686686915+685933665
3138+683835243+680931521+678170879+675960171+673864979+672064208+671746879
3128+673523467+676653411+679821886+681599074+680773646+677598561+673881578
3118+671169981+669871301+669866945+670788736+671912491+672573134+672525817
3108+671799905+670614487+669255271+667738856+666015519+664499479+663963889
3098+664728406+665967601+666195777+664678159+662121659+659951509+659122325
3088+659400372+659702979+659431767+659068173+659001252+658648999+657450287
3078+655924558+655112348+655332413+655709076+655069162+653339442+651513659
3068+650162104+648777276+646882696+645059392+644341216+644901666+645587170
3058+645000733+643114940+641264072+640597870+641153288+642092430+642333749
3048+641415863+640182827+639971776+640696336+640546872+638223429+634687530
3038+631952649+631001866+631549698+632858217+633953431+633750792+631869280
3028+629200606+627136245+626151064+625500672+624533216+623733323+623690024
3018+623623704+622228812+619682113+617597398+617113782+617724780+617927307
3008+616820901+615042775+613884470+613666321+613711761+613812856+614502641
2998+615627973+615965618+614721766+612403881+610068759+608584789+608317070
2988+608774247+608724226+607111260+604145762+601448097+600709793+601943392
2978+603315677+603028655+601099112+598926183+597560846+596900015+596328336
2968+595580681+594786158+594075268+593641374+593872291+594748342+595352204
2958+594661480+592780607+590752072+589180753+587688447+585895712+584199677
2948+583142918+582683675+582433042+582052511+581271283+579963327+578317539
2938+576788769+575879933+575764531+575906934+575378254+573876560+572099822
2928+570902913+570459667+570324174+569905075+568797093+567085924+565406263
2918+564267449+563412954+562370240+561373416+560981882+561031641+560752505
2908+559762929+558287334+556691305+555383349+554785308+554851365+554806188
2898+553925517+552481167+551343931+550838722+550495219+549751244+548481781
2888+546925483+545502876+544712936+544817936+545448461+545596385+544359857
2878+541959579+539619574+538186603+537392419+536718556+536223374+536048750
2868+535845247+535249646+534360001+533392807+532425162+531536118+530766343
2858+530110620+529694000+529479756+528883893+527430605+525598588+524313052
2848+523851443+523610274+522705757+520749401+518235448+516102552+514915144
2838+514555155+514518540+514414742+514222129+513995042+513512365+512601502
2828+511526642+510522158+509359347+507896896+506557283+505752997+505258228
2818+504542042+503518706+502696619+502543663+502819683+502716673+501725182
2808+500212710+499009566+498484642+498185752+497418569+495998741+494282090
2798+492661313+491331501+490407607+489884860+489424302+488532704+487133681
2788+485659589+484427341+483309219+482225609+481471082+481186989+480916227
2778+480091361+478708036+477142162+475567088+473994642+472672867+471917363
2768+471601349+471237605+470557321+469691897+468831168+467976448+466985820
2758+465692886+464086642+462488848+461356043+460721124+460056462+458947353
2748+457645369+456632097+455938030+455240772+454324088+453129357+451662324
2738+450087550+448665357+447523689+446659467+446021468+445438336+444726281
2728+443970176+443350541+442709163+441750719+440577469+439467684+438299128
2718+436829691+435343619+434343904+433781651+433169151+432307821+431445440
2708+430837108+430476481+430165161+429676626+428897388+427859781+426671772
2698+425452331+424286516+423164338+422006935+420792075+419585966+418481063
2688+417611809+417132512+416999159+416866820+416377796+415490179+414424069
2678+413403211+412516495+411684043+410731833+409627531+408569796+407714399
2668+406981765+406301894+405805586+405530130+405162142+404374867+403288629
2658+402309042+401570024+400824472+399920481+399060728+398409285+397769259
2648+396947661+396139957+395596368+395158944+394472951+393488971+392479642
2638+391665630+391021435+390431542+389893173+389455936+389028464+388430610
2628+387651973+386909500+386402113+386079339+385665536+384934742+383988503
2618+383154024+382600221+382213343+381845656+381490323+381174047+380832909
2608+380376670+379829401+379338538+378992293+378661408+378137084+377436259
2598+376810878+376387836+375961678+375288454+374449055+373717623+373161566
2588+372604909+371960564+371358316+370917512+370603713+370354733+370194942
2578+370159454+370173537+370033724+369515034+368577995+367521687+366822100
2568+366704971+366920003+367009906+366782406+366461435+366381559+366607744
2558+366902014+366996537+366780528+366261312+365539944+364844601+364385395
2548+364142311+363961453+363819012+363778641+363758813+363618100+363440959
2538+363457182+363649720+363701506+363429092+363051490+362858427+362802097
2528+362666340+362520858+362669908+363128588+363473969+363361946+362935074
2518+362519243+362145359+361637033+360990472+360381315+359935591+359718493
2508+359758000+359902205+359867055+359556524+359131267+358728467+358322174
2498+357847421+357321633+356871552+356646268+356610855+356510437+356181392
2488+355791472+355615721+355657030+355629278+355300271+354763855+354340475
2478+354251961+354407283+354475067+354200851+353717648+353451806+353628346
2468+353997498+354157627+353982702+353595599+353105674+352557504+352042268
2458+351700981+351596018+351629779+351643787+351598459+351577730+351583062
2448+351453953+351105605+350729731+350575649+350592097+350482966+350086024
2438+349510740+348943643+348504566+348251267+348155768+348085880+347922334
2428+347686460+347487125+347352721+347186621+346927313+346691514+346658392
2418+346840640+347071670+347197024+347193381+347137050+347136149+347277914
2408+347572635+347912908+348112393+348051857+347806181+347575564+347490993
2398+347540414+347640569+347705425+347690028+347626787+347574550+347500044
2388+347269239+346751037+345844792+344422486+342361918+339661136+336444480
2378+332855292+328996957+324986192+321034911+317427547+314304474+311455693
2368+308561942+305734529+303515279+302297170+302193353+303466327+306477885
2358+311091874+316628105+322653585+329469494+337267806+345016772+350951373
2348+353887053+353808040+351814618+349386175+347121916+344569020+341227686
2338+337142227+332745448+328468051+324521240+321028865+318227702+316358207
2328+315411630+315100574+315061556+315124270+315438632+316258164+317590079
2318+319139767+320571274+321791917+323003735+324434040+326036003+327577580
2308+328940251+330132729+331120878+331849793+332339117+332635491+332791826
2298+332939637+333235222+333695517+334189009+334615431+335011847+335428842
2288+335777227+335937394+335969990+336030151+336106760+336034808+335732388
2278+335296729+334916498+334741648+334762228+334810897+334724787+334463301
2268+334095576+333766568+333622550+333688119+333851853+333977657+334004733
2258+333984605+334000565+334004621+333860565+333596300+333409584+333400270
2248+333510565+333690522+333926697+334181724+334427099+334649379+334803049
2238+334859905+334886267+335016879+335367405+335930521+336521953+336902747
2228+337013455+337049995+337282489+337803696+338460322+339037070+339452639
2218+339733352+339912746+340064425+340336238+340862327+341685991+342745003
2208+343854713+344786306+345489047+346182287+347121578+348316685+349571089
2198+350752902+351918416+353175449+354511645+355792486+356908017+357898269
2188+358905382+360002962+361110306+362065820+362774946+363323567+363930846
2178+364745948+365723131+366697835+367510271+368080072+368437808+368677250
2168+368901407+369243634+369837957+370709540+371780043+372982435+374328658
2158+375931672+377953109+380413135+383084174+385677177+388094692+390400072
2148+392509272+394136095+395357752+396981459+399790583+403654814+407902430
2138+412186436+416476450+420707129+424910883+429288021+433923266+438689009
2128+443396883+447944026+452433375+457034559+461570699+465457801+468138980
2118+469421887+469463759+468611517+467274608+465888203+464879550+464633236
2108+465620783+468508395+473856407+481599140+490756330+499514174+505733018
2098+507761928+505100878+498570602+489776781+480047987+469936447+459665303
2088+449410796+439138564+428833998+418834818+409563690+401255738+394097565
2078+388215690+383507066+379730447+376641549+374016362+371775650+370000076
2068+368678076+367616698+366626671+365624515+364610267+363646866+362830487
2058+362259222+361934270+361650102+361207532+360742355+360569158+360820542
2048+361492940+362616695+364248700+366569740+369970822+374855310+381528628
2038+390326317+401498034+414844181+429591755+444578019+458552439+470409284
2028+479148840+483899187+484353548+481019988+474962399+467523626+459925850
2018+452611980+445206179+437395888+429508085+422049409+415127824+408555075
2008+402251210+396325960+390868817+385843165+381187678+376919521+373097612
1998+369756316+366966757+364857369+363343132+361917484+360062221+357814637
1988+355577942+353594623+351931785+350668406+349795847+349127693+348461942
1978+347749362+347100924+346640554+346323113+346022346+345834353+345994218
1968+346370205+346385940+345698634+344670453+343918441+343660223+343666419
1958+343623833+343373050+342943549+342487423+342109408+341784794+341523721
1948+341534988+342124918+343331591+344519262+344617465+343301585+341541710
1938+340418631+340053046+339972156+339870122+339732488+339612016+339527746
1928+339581711+340118615+341376323+342894955+343972181+344720662+345565093
1918+345939728+344970056+343183517+341974966+341898169+342411302+342697911
1908+342373072+341668453+341082316+340860487+340892407+341004129+341198094
1898+341598228+342138925+342504998+342731559+343399826+344560608+345141150
1888+344378624+343036720+342171822+341841726+341614075+341355031+341169929
1878+341146307+341292316+341602997+342407246+344442164+347882377+351151233
1868+351717655+349105762+345538655+343104053+342152031+342004821+342030095
1858+341998925+341953147+341988335+342128786+342445325+343163576+344569020
1848+346978687+350438991+353717686+354383925+351850669+348610692+346906696
1838+346808268+347187447+347478112+348509598+351288417+354961462+357012529
1828+356520088+355080620+353714006+352009334+350098492+348949464+348889528
1818+349336905+349814099+350605992+352264848+354569552+356298935+356508108
1808+355731049+355317696+356218870+358630640+361888943+364515932+365327241
1798+364881404+365122423+367554246+371694646+374625257+373686453+370370017
1788+368184133+368474685+370297726+372520976+374863685+376996017+378311559
1778+379223436+381397153+386172134+392854427+398117569+398909950+396294115
1768+393127292+391076488+391191102+393837281+397458653+399683743+400493024
1758+401420298+402594187+403768977+406277372+411353158+417524421+421294843
1748+421279221+419488026+418350526+418947366+421070123+423458571+424803705
1738+426014734+429867474+436917379+442438965+441690446+437611220+434392574
1728+432796319+432715165+434198421+436838855+440717506+447269075+457414038
1718+468461753+474207308+472372476+467462376+463858579+463201916+465862403
1708+471575137+478819082+485337341+491107944+498475403+507666279+514713931
1698+517341146+517283463+514988561+511517892+510479647+513722290+520023752
1688+528146152+539113877+552809686+562560674+562617718+558521105+557087458
1678+560421357+567582121+575573796+581901020+587569965+594090703+599399322
1668+600896923+601158296+604381149+610860877+617252242+620964569+623535416
1658+628227930+637435779+652213509+668922396+676577403+674881556+675224946
1648+680499729+685190178+684046595+680093174+678378400+680290556+685797570
1638+694544036+703426672+705748913+700078540+693493436+690754274+691535164
1628+693662202+695901675+698330419+700006287+699206094+697284024+697727157
1618+700859205+702129044+697791674+690834338+685264835+681666746+678904151
1608+675974066+672786815+670080099+668667707+668743490+669888200+671594862
1598+673523391+675259646+676251813+676174978+675098241+673274110+671065431
1588+668935239+667160530+665644264+664145574+662831798+662820456+665722826
1578+671759347+677671115+678972724+677431222+678489408+683231906+687885853
1568+689288180+689621957+692256720+698171492+708177056+724515439+746051094
1558+760584875+761811452+760608834+763689208+770633926+779324287+788210603
1548+797119826+807369489+819864934+833337975+845321789+852104200+848721444
1538+838680129+831761248+830966162+833061580+833919906+833701494+835570838
1528+840502606+846540104+851914254+857027180+861888197+864648389+865061179
1518+865081007+865244741+865080031+865362734+867568334+872712656+881088993
1508+890332369+893000629+885612854+877011045+873613868+875100241+879334337
1498+883455623+884323262+882112104+880990377+883796986+889318796+893563408
1488+893442861+889783185+885464667+882547651+881438993+881534530+882573113
1478+885166867+890146929+897540413+904940731+907339056+903077470+897300520
1468+894813794+895801379+897333192+896935649+895967441+897726979+903483350
1458+910546136+912902176+908797264+903151826+899375208+897870359+897847902
1448+897701293+896022946+893221895+890936081+890329890+891945448+895913214
1438+900727965+902710797+900405004+897763632+898021249+899802043+899995669
1428+898169436+896556733+896348536+896980563+898441850+901582836+905295688
1418+906035344+902759616+898243792+894749953+892878655+892510555+893183516
1408+894469277+895858686+896183600+894707742+892782293+892378666+893656015
1398+895127892+895377924+893814266+890680716+887165847+884549635+882974186
1388+881290356+878398651+875173921+873906486+875677966+879566569+884103949
1378+888642305+893181338+897448707+900731495+902719284+903898618+904850452
1368+906004325+908043037+911497295+915675211+918559706+918610103+916633129
1358+914932400+915032594+916678494+918642324+920071164+920887355+921416035
1348+921994361+922745358+923808351+925616634+928412727+931579625+933957896
1338+935076168+935650288+936393775+937108946+937709429+939095082+941632056
1328+943841561+944263514+943527537+943239126+944078825+945659908+947139295
1318+947927922+948433318+949465893+950743317+951003038+949807856+948387653
1308+948268458+949445464+950397073+950138328+949506601+949770603+950871976
1298+951749680+951739690+950897062+949355335+947244896+945004747+943020864
1288+941217764+939484063+937916049+936307552+934354387+932474528+931271610
1278+930296943+928565871+925934187+922982922+920254351+918167721+916882410
1268+915883634+914455094+912602648+910676598+908329646+904854809+900339210
1258+895572753+891133162+887263937+884175752+881867780+880029380+878458587
1248+877247632+876425809+875837719+875412236+875210423+875356131+876063041
1238+877365325+878669863+879123286+878862889+879252546+881101461+883235409
1228+883863606+883074003+882738349+884141728+886794592+889399236+891258667
1218+892721906+894534996+896878117+899196303+901105078+902940775+904953124
1208+906755548+908127307+909546233+911487305+913917551+916633054+919406089
1198+921856314+923723630+925114166+926341344+927879916+930301074+933757435
1188+937668120+941142657+943703739+945682891+947806023+950235968+952517426
1178+954645966+957054806+959316060+960419236+960498624+960833452+962202507
1168+964262249+966336862+968138009+969906710+972190421+975169626+978169710
1158+980223894+981092735+981227177+980986984+980512081+980024259+979975139
1148+980974741+983230287+985921906+988021229+989634233+991436282+993258083
1138+994551280+995594745+996819745+998005538+999181042+1000975279+1003470117
1128+1006076865+1008634868+1011405800+1014245230+1016737064+1018730411
1120+1019910120+1019550957+1017834606+1016576485+1017167879+1018758275
1111+1019993039+1021475281+1024531996+1028415417+1030761317+1030536746
1103+1029210577+1028940041+1030353860+1032204278+1032894288+1032326778
1094+1032242432+1034649470+1039765326+1045665902+1050210868+1052560599
1085+1052952584+1052403099+1052588238+1054436703+1056498172+1056356745
1077+1054128163+1052845556+1054899815+1059040177+1061713771+1061331550
1068+1059854641+1059508621+1059126401+1056189256+1052189344+1051951854
1060+1056880693+1062341667+1063312203+1060546604+1058687474+1060329093
1051+1064157911+1067561622+1069398746+1070194883+1071056363+1072504055
1043+1073741823+1073505310+1071494313+1068854894+1067442201+1068093982
1034+1069768799+1070879035+1071187801+1071487779+1071881792+1071821631
1025+1071107811+1069775559+1068132437+1066990356+1066219831+1064414628
1017+1061617558+1060178428+1061681324+1064840035+1066958661+1066366515
1008+1063243781+1058844974+1054475684+1051588035+1051756501+1054770254
1000+1057805264+1058716690+1058769566+1059568557+1059552184+1056410672
991+1051309237+1047743444+1046978852+1046907200+1045369079+1042756698
983+1040589252+1039054210+1037235563+1035028311+1033043752+1031204074
974+1029066221+1026783111+1024296685+1020532084+1015269543+1010375404
965+1007255748+1004475503+999583917+992342601+984842164+979445482+977135709
955+976901825+976619421+974796118+971405250+967588224+964827131+964041133
945+964947453+966065574+965864737+964239792+962357228+961066285+960294257
935+960031006+960614665+961793999+962723151+962991885+962753870+962153012
925+961105866+959508034+957605417+955929474+954573262+953043703+951371289
915+950470303+950954219+952316815+953365537+953031235+951074540+948411387
905+946454242+945775498+945516152+944569876+943015156+941758386+941224073
895+940847485+939969406+938877196+938536660+939229224+939689782+938389600
885+935757166+934026694+934570546+936278260+936885727+935532369+933801598
875+933957896+936118206+937917100+937500856+936046103+936113324+937803162
865+938141596+935498121+932606491+932800718+935330031+936784558+936054215
855+935193335+936013882+938325233+940708987+941417099+939536788+936059472
845+932908122+931340483+931879903+934453829+937952175+940760060+942107785
835+942240499+941565435+940427861+939373580+938979267+939286005+939688054
825+939707732+939421273+938780233+937432959+935951468+936064880+938564299
815+941985285+944448428+945943137+947423201+948531033+948288361+947330368
805+947091077+947330293+946594167+944664361+942717506+941685382+941846862
795+943100402+944760123+946134961+947551184+949552717+951522255+952574357
785+953062555+953780580+954274335+953306127+950520174+946534757+942243429
776+938910093+937963066+939821445+943317913+946624510+948451194+948112235
766+945172236+940446563+936664011+936387090+939318977+942687688+944517526
756+945743502+948108855+950698854+950785828+948319456+946689929+948236087
746+951868650+955429560+957519419+956744237+952744776+948067396+946173266
736+948063265+951909883+955332296+956920214+956075708+953145248+949954241
726+948649102+949476784+950706064+950852148+950071483+949321837+949035453
716+948896505+948612825+948754026+950076891+951876160+952605452+951842287
706+949975421+946676184+941217914+934210707+928434057+926826311+929078553
696+931141299+928906858+922695412+916639213+913661360+912522584+909681426
686+903921751+897597795+893390586+892037980+892860029+895003064+898052569
676+901572471+904040796+902586870+895081401+882968928+873070993+872777173
666+878073587+880648489+879439863+878321140+880213168+884034325+886553948
656+885278551+879598640+871220049+863421813+859022405+858937383+861993723
646+865622756+867219912+865649945+861922597+858434916+856649391+856221054
636+856891537+859049594+861101975+858937684+850601979+839765203+832375926
626+831753211+837276599+845459686+852326667+856369616+858874068+860323863
616+858794079+854350358+850630145+849777227+850836615+852180283+851982150
606+848619749+842831683+836715323+830042418+821947733
##END=
