##TITLE=<SNM>
##JCAMP-DX=4.24
##DATA TYPE=INFRARED SPECTRUM
##DATE=3/5/2025
##SAMPLING PROCEDURE=Instrument type and / or accessory
##ORIGIN=Admin
##XUNITS=1/CM
##YUNITS=ABSORBANCE
##RESOLUTION=4
##FIRSTX=4497.3318
##LASTX=599.83466
##DELTAX=-1.4281778
##MAXY=1.7457812
##MINY=0.18384963
##XFACTOR=1
##YFACTOR=1.6258854e-09
##NPOINTS=2730
##FIRSTY=0.20667799
##XYDATA=(X++(Y..Y))
4497+127117191+126848502+126642107+126249022+125698713+125266494+125103019
4487+125144481+125364614+125872013+126614741+127167809+127100923+126513120
4477+125906931+125579330+125481513+125594718+125959007+126344173+126410005
4467+126265648+126425594+127132056+128065232+128704716+128663089+127805451
4457+126517565+125696678+125882470+126492819+126518380+125849953+125281460
4447+125323711+125634494+125579633+124932046+123973191+123156126+122759009
4437+122747012+122865093+122902844+122882442+122903934+122957888+123056448
4427+123251836+123291190+122736371+121741626+121122506+121324556+121862952
4417+122037406+121729189+121330477+121267697+121620603+122048084+122227268
4407+122270343+122352461+122150869+121306025+120264657+119852830+120040968
4397+119911367+118970924+117748493+116883853+116434432+116357629+116844123
4387+117748713+118335774+117984280+116814493+115515709+114773642+114806351
4377+115393770+116270122+117163284+117520378+116891323+115642140+114621714
4367+114247775+114453336+115091482+115794965+115897622+115121497+114081697
4357+113684919+114214836+115244876+116156944+116509557+116267739+115914797
4347+115950476+116199891+116112164+115619997+115070788+114551813+113960170
4337+113440114+113201174+113194658+113278508+113418787+113537931+113449004
4327+113172598+113076622+113406863+113861133+113986592+113842702+113876008
4317+114291611+114880065+115259338+115151751+114697215+114444666+114696583
4307+115030819+114865429+114277735+113891927+114182585+115134557+116322363
4297+117132279+117196736+116780317+116554364+116975210+117998293+119197445
4287+119969463+119906170+119118305+117966152+116640258+115388353+114820594
4277+115362526+116553888+117422010+117469659+116973661+116511481+116501409
4267+117031345+117858913+118584117+118932825+118936381+118840516+118780228
4257+118634451+118378153+118310259+118582302+118894213+119102019+119556124
4247+120316659+120729302+120353328+119672821+119434166+119787979+120343558
4237+120590682+120162074+119133895+118124421+117776520+118143576+118793444
4227+119402199+119939054+120338619+120417895+120202821+119964872+119831806
4217+119665939+119408275+119232519+119308194+119651394+120158078+120558852
4207+120545572+120247226+120264776+120908367+121751442+122212897+122243315
4197+122235544+122494646+122911899+123066970+122710389+122159264+121938058
4187+122007666+121842880+121375294+121202626+121656850+122393795+123100165
4177+123795519+124287375+124218243+123786336+123632612+124001254+124566869
4167+124963720+125046471+124747547+124040434+123082797+122249557+121942311
4157+122303712+123073009+123786996+124209216+124451794+124580277+124427699
4147+124048014+123866364+124034559+124151055+123884016+123385268+122968309
4137+122794331+122875880+123134598+123496247+123978937+124617157+125323885
4127+125855214+125934261+125486810+124725523+124000310+123697729+124117273
4117+125108618+126037468+126444383+126527234+126779572+127388977+128048341
4107+128246249+127863548+127409168+127424913+127895259+128464631+128856149
4097+128882507+128436174+127644808+126837880+126331654+126311857+126749255
4087+127301269+127520082+127339010+127152714+127249423+127415272+127334703
4077+127118190+127109254+127368228+127605912+127476484+126854908+125998242
4067+125395161+125271590+125337458+125202687+124909125+124806807+125004999
4057+125254973+125365045+125429383+125611738+125979005+126533851+127123625
4047+127411835+127231606+126801431+126361403+125889133+125396764+125141786
4037+125281946+125654932+126139006+126884804+127879247+128599796+128537987
4027+127884774+127286981+127092830+127209821+127467833+127692851+127638310
4017+127270374+126897608+126706033+126493406+126112126+125853344+126122821
4007+126883604+127659930+128121450+128444496+128923603+129435594+129589821
3997+129258985+128670485+128140568+127922295+128081591+128373348+128477774
3987+128420291+128528098+128971151+129510068+129727112+129535776+129402719
3977+129820668+130610962+131081701+130853063+130220911+129757311+129772781
3967+130159222+130700155+131401732+132286196+133018641+133132909+132541944
3957+131539665+130522658+129939501+130261227+131682189+133693456+135138311
3947+135299586+134894642+135165081+136182015+136861074+136505135+135478651
3937+134570139+134578039+136052652+138555417+140401715+140176578+138552393
3927+137513316+138007298+139100081+139497739+139367624+139858151+141244524
3917+142224816+141265136+138533137+135740714+134288060+134417881+136023957
3907+139463471+144918707+151108999+155542994+156677945+154753598+150644575
3897+145795481+142493423+142485412+145222690+147609583+147163158+145739593
3887+146540051+149306198+151356251+152270749+153356988+153329658+150416459
3878+147043335+146827656+150044692+154667796+159102331+161783648+161089293
3868+158480214+157160663+157377652+156637179+153915610+151133781+150580548
3858+153574894+160781020+170829198+176750985+171988766+161871833+153538601
3848+149255525+148991300+151753543+156037003+160758786+165575188+169568834
3838+170759765+168714239+165609465+163042105+160678648+158288135+156883551
3828+157154266+158756556+161986816+167693887+173813215+175433138+172626738
3818+170167470+168615404+165029287+159891103+156723586+157608371+162165148
3808+167466761+170204240+171459050+174501338+178402894+179202115+177307774
3798+176001659+175292181+173697205+171814705+171227910+172418657+175128330
3788+179086361+183710941+188154513+192575080+198378144+206012677+213563846
3778+219288678+224375794+231072936+240190358+250852643+260797788+267984100
3768+273010893+277488998+281482607+285463551+291768561+301735262+313347201
3758+323836305+334092289+347787036+367418032+391245697+412152491+425101064
3748+434703991+446991588+461320037+470557061+473304420+476956360+486038058
3738+499433074+513108098+523908041+531584164+537516784+542919083+548017985
3728+552128686+554193953+553968239+552679353+550952676+547365441+541434544
3718+536042913+534639906+537997651+543993179+548633467+548527667+544109537
3708+538575116+535241310+536375638+541454927+546488685+547877175+546786766
3698+546869800+550320405+557199361+566213017+575656620+583461383+586564709
3688+583586613+577728156+573302034+572471909+574975041+579274503+585061913
3678+593321148+601470513+602957288+598338482+594364962+592032629+586876134
3668+578287951+570866650+567435695+567176657+567629222+567524522+567946513
3658+570039421+573000067+576115344+581015257+588986675+597209800+599263556
3648+593161604+584716175+579181167+577401517+577796416+578525506+578907795
3638+579741512+582089829+586084978+591283706+597395885+603261417+605661462
3628+603256212+600315692+600777202+605004005+611598627+617987332+621011986
3618+620638789+620929794+624230863+628820378+632648761+635805904+638201402
3608+638514404+637165836+636764411+639108219+643808886+648967874+652645439
3598+654079571+653518822+651671901+649931147+650633989+655426159+662190553
3588+665219679+662106529+657507483+655999885+657103785+657784044+656625448
3578+654798689+653946862+654498886+655988154+658317591+661861128+666067621
3568+668340895+665661650+658483587+650764204+646007448+645000990+646202551
3558+647538801+647924829+647217588+645676043+644005676+643285824+644208698
3548+646207097+647802825+647972854+646906346+645681176+645508728+646831340
3538+649024257+651284334+653162562+653900744+652571240+649662357+647067576
3528+645829868+645208777+644263321+643057800+641964091+640737601+638643739
3518+635230565+631137571+628367336+628940402+632535043+636098816+636858260
3508+635322654+633814030+632992630+631896795+630342859+628949347+627500111
3498+625310055+622624064+620690846+620706243+622675901+625034446+625896905
3488+625019929+623844762+623512991+623711760+623356454+621564522+618220855
3478+614450430+611988688+611680635+613150217+615632086+618306419+620013666
3468+619898041+618329001+616095026+613499951+611466982+611969624+615482587
3458+619355402+620529469+618864821+616375473+614795069+615135272+617562151
3448+620328207+620519498+617206331+612416507+608538083+606508340+606365843
3438+607709242+609223328+609205328+607334908+605056245+603477527+601739742
3428+598575378+594938028+593397363+594778815+596802949+596767279+594641854
3418+592493736+591893101+592773230+594118168+595236916+596423117+598173513
3408+599852129+600156918+599026660+597467958+595852581+594087044+592707572
3398+592161818+591895374+591391962+590976790+590865930+590518102+589599334
3388+588579018+587872364+587234080+586290713+585419456+585776229+588054673
3378+591417294+594071574+594731414+593381196+591092488+589198239+588170298
3368+587252080+585711342+584123275+583640246+584497572+585977235+587405135
3358+588420025+588671291+588109040+587276935+586808093+587037107+587973582
3348+588880069+588455108+586498318+584411715+583083163+581900262+580557376
3338+580082778+581090630+582379478+582431022+581257505+579743602+578308224
3328+577054128+576308211+576293071+576795787+577589582+578700300+579860913
3318+580184913+579024740+576898251+575068193+574444610+575208051+576795530
3308+577906359+577545406+576299193+575477793+575300763+575195953+575261501
3298+576014420+577083933+577373875+576514606+575243317+574230810+573503443
3288+573204555+573683296+574480390+574626039+574311242+574820006+576577404
3278+578618256+580006269+580654708+580759262+580262888+579063196+577449138
3268+576123116+575558408+575331961+574526655+573021770+571825194+571612347
3258+571572094+570715538+569879804+570818882+573401455+575338999+575016136
3248+573394233+572422528+572457429+572279812+571212462+569859385+568759371
3238+567793751+566993468+566466483+565755393+564582426+563612664+563517495
3228+563917270+563842301+562905349+561682452+560918645+560495444+559662020
3218+558247391+556930498+556447028+556929288+557896374+558788966+559365882
3208+559431136+558636388+556953923+554998269+553502549+552649219+551959171
3198+550695654+548775450+547180566+546888057+547690540+548517512+548491117
3188+547418488+545744418+544118812+542755434+541505701+540522155+540133488
3178+540128978+539849044+538854060+537178304+535198748+533471521+532352187
3168+531745174+531366442+530826993+529597606+527614164+525679699+524632035
3158+524383298+524260781+523994448+523732404+523229651+521835772+519510770
3148+517241565+515998028+515633996+515278689+514516788+513639886+512936347
3138+512335860+511641266+510663403+509309483+507852622+506832819+506470364
3128+506447122+506344951+506074181+505788895+505539571+505132794+504305456
3118+502993988+501429494+499966218+498848240+498164058+497892629+497795811
3108+497418911+496587063+495755766+495471725+495699933+496029248+496234213
3098+496276482+496076502+495611546+494986056+494167370+492883103+491090035
3088+489379965+488464607+488320094+488343263+488252383+488227528+488277385
3078+488106257+487521497+486519401+485163171+483755068+482905477+483001123
3068+483602673+483709610+482819107+481425337+480273010+479521704+478809770
3058+477784395+476468492+475245154+474444394+474036224+473857104+473809043
3048+473609467+472832316+471522057+470318479+469743324+469692696+469648521
3038+469151561+468177253+467234986+466866079+466874071+466412414+465052775
3028+463333870+461995274+461182379+460649309+460216466+459739669+459002844
3018+457911041+456663655+455615441+454998713+454770066+454661589+454399032
3008+453950059+453492361+452987812+452059879+450664314+449447465+448896395
2998+448632004+448046657+447092659+446064645+445172492+444515438+444024197
2988+443448564+442644248+441700625+440749303+439897915+439300397+439044842
2978+438977644+438766630+438187186+437334552+436448998+435534519+434399751
2968+433101957+431991752+431242792+430698430+430234757+429896937+429623565
2958+429192482+428507237+427707063+427009061+426547367+426252879+425867034
2948+425229410+424480231+423852725+423409618+423006800+422334789+421216225
2938+419959563+419050400+418548234+418193587+417909034+417745384+417574843
2928+417207328+416600682+415782252+414780046+413713466+412820799+412275631
2918+411916842+411326949+410407997+409615229+409277886+409039267+408340164
2908+407140619+405856682+404853194+404218539+403836507+403501913+403075596
2898+402597479+402193011+401908458+401679591+401404862+400987930+400384656
2888+399674079+398960973+398158600+397068887+395773293+394699967+394129394
2878+393824201+393358181+392724260+392366900+392581470+393107282+393417534
2868+393224776+392569152+391616584+390593702+389766327+389231570+388800964
2858+388274859+387711178+387237717+386745046+386014746+385102100+384349621
2848+383988118+383887707+383744770+383392763+382889277+382397339+381994668
2838+381601015+381144197+380665273+380093930+379182677+377973380+377019566
2828+376759171+376950755+377066600+376932022+376655607+376237905+375591776
2818+374798568+374100125+373595686+373031969+372071848+370804885+369724374
2808+369105777+368731480+368346405+368018190+367837897+367577723+366905785
2798+365799539+364610258+363742704+363244020+362740021+361908027+360876823
2788+359919159+359009593+358061827+357308138+356992717+356899637+356549683
2778+355741774+354690334+353705835+352850965+351952800+350949018+350034356
2768+349346361+348755845+348114335+347447456+346795865+346119858+345415477
2758+344699034+343897321+342971844+342116754+341612755+341444450+341245167
2748+340726174+340002693+339347106+338781005+338130733+337354059+336558027
2738+335784616+335000792+334232513+333534950+332893733+332286280+331786534
2728+331475622+331238286+330773183+329917543+328903167+328129278+327690717
2718+327299153+326694413+325959128+325321980+324766327+324021290+322971683
2708+321899861+321171797+320819789+320611415+320403591+320203391+319951978
2698+319465979+318646523+317677824+316918819+316523920+316259419+315821555
2688+315218208+314677512+314309081+314007298+313589119+312950835+312175114
2678+311485250+311014611+310661394+310238926+309687233+309045173+308331443
2668+307615294+307084588+306833047+306690623+306444728+306063099+305548524
2658+304834629+303982179+303220370+302703796+302421094+302279789+302099184
2648+301659212+300916539+300068488+299374316+299003502+298961820+299019797
2638+298818187+298204978+297421576+296859013+296671737+296693568+296673496
2628+296481912+296110677+295605889+295050163+294554981+294225336+294097375
2618+294055143+293852451+293344914+292699372+292240116+292075532+291991874
2608+291742166+291340448+291021764+290953412+291035713+291013827+290769398
2598+290418087+290112821+289867768+289596266+289207324+288668681+288083114
2588+287647504+287419571+287205350+286799434+286267445+285872894+285754996
2578+285777487+285714249+285506278+285265478+285082967+284969633+284950314
2568+285050102+285208948+285368474+285589422+285942365+286382594+286832263
2558+287225201+287423292+287317676+287023920+286734290+286408292+285846408
2548+285047334+284299419+283875430+283717298+283511911+283083944+282592281
2538+282294989+282267659+282407003+282583813+282721764+282770961+282660249
2528+282338522+281887368+281522622+281427233+281570426+281687994+281515950
2518+281100741+280767796+280730220+280884723+281019869+281020547+280844324
2508+280506503+280139905+279914264+279842008+279753346+279494235+279070887
2498+278594310+278196551+278004930+278053999+278205386+278255738+278092510
2488+277707692+277177481+276647032+276197766+275740765+275171878+274578008
2478+274146100+273918076+273759174+273539234+273237982+272881227+272466531
2468+271989917+271518619+271205709+271181642+271382758+271537865+271409593
2458+271029559+270642541+270440949+270386582+270284870+270018463+269655696
2448+269310159+269009273+268769188+268660125+268683111+268688060+268520415
2438+268207102+267941007+267894907+268057328+268233314+268209375+267933235
2428+267536557+267191863+266979677+266897064+266927106+267049898+267218259
2418+267366071+267460690+267547629+267683765+267786742+267661641+267274861
2408+266873821+266716129+266798485+266959330+267119167+267302851+267519785
2398+267747974+267982945+268202519+268319611+268269808+268119760+267967713
2388+267754720+267307250+266534278+265412543+263812416+261546932+258608978
2378+255212979+251628346+248065508+244612686+241196120+237760051+234504477
2368+231738733+229612703+228205864+227631827+227894622+228977480+231139309
2358+234762965+239935517+246575232+254782299+264226250+273263846+279678193
2348+282250392+281497711+279398479+277815050+276706733+274797215+271546499
2338+267550928+263586280+259881788+256356618+253224074+250935989+249598951
2328+248867001+248352004+247857775+247406969+247220976+247533116+248417387
2318+249785971+251353141+252707097+253687216+254543405+255532450+256610982
2308+257658701+258684296+259672516+260486198+261048303+261470954+261915894
2298+262422954+262944972+263467209+263977147+264370323+264539563+264562384
2288+264665563+264975045+265396230+265746202+265906662+265849730+265612761
2278+265269973+264898628+264570302+264339639+264201523+264110313+264055599
2268+264032521+263964902+263795516+263612968+263541867+263551673+263504492
2258+263348009+263145409+262927192+262624363+262207450+261815740+261650807
2248+261753674+261954754+262056558+262031483+261996399+262021419+262074319
2238+262154403+262328482+262602367+262905397+263236490+263696956+264331629
2228+265022428+265607042+266078414+266607579+267362973+268347509+269415666
2218+270429676+271387468+272384817+273506955+274831126+276441133+278305834
2208+280229282+282014945+283605705+285087605+286641394+288398535+290308254
2198+292257511+294244949+296304735+298380120+300359988+302139565+303670167
2188+305029549+306362115+307719078+309038721+310264735+311398989+312444967
2178+313360179+314093961+314615850+314868216+314795300+314446115+313924850
2168+313259071+312408930+311342863+310111130+308898020+307846800+306831434
2158+305631540+304250253+302865374+301601363+300428414+299258673+298236212
2148+297707211+297771128+298524853+300848938+305827505+313231503+321672533
2138+330187140+338628683+346878313+354732530+362264580+369757478+377502009
2128+385629561+393974029+402282315+410436519+418240548+425290522+431187509
2118+435631484+438440835+439780567+440335120+441153147+443289424+447566304
2108+454587683+464721773+477874102+493209339+508879390+522232871+531085224
2098+534783942+533762637+529025603+522091071+514152023+505451661+495718153
2088+484339682+470568389+454487235+437039660+419089186+401410178+384905090
2078+370103510+357166118+346274526+337311716+329773984+323441075+318403028
2068+314485928+311307743+308540404+305901796+303396300+301327037+299744928
2058+298424809+297326939+296497419+295916068+295784716+296419811+297902755
2048+300263023+303672623+308384490+314919247+324055017+336336236+351988763
2038+371120893+393310450+417235996+441141893+463282693+482047051+496339720
2028+505690756+510123844+510453598+508002487+503718349+498192286+491933284
2018+484956960+476903130+467867075+458392751+448712253+438562729+427674216
2008+416166740+404437398+392815946+381499944+370694613+360574490+351192695
1998+342617710+335106043+328930625+323922162+319370371+314705850+310112780
1988+306097101+302823509+300191793+298087044+296316100+294674712+293153055
1978+291847508+290779149+289892092+289080737+288308480+287785400+287723738
1968+287836833+287486567+286471237+285255341+284321066+283736251+283437767
1958+283503828+283930254+284418178+284587216+284304404+283789389+283439435
1948+283529508+284145814+285253582+286397038+286604826+285432903+283742721
1938+282629143+282251162+282145582+281991061+281767051+281591780+281588554
1928+281881741+282715807+284172319+285679697+286581400+287188248+288085552
1918+288700208+288031809+286511911+285566125+285833063+286773442+287485669
1908+287528488+287116761+286685789+286417036+286256081+286200505+286421288
1898+287097607+288053328+288744310+289039458+289583453+290644865+291274240
1888+290610368+289291824+288446449+288282727+288355350+288370802+288343179
1878+288395840+288582824+288912340+289766276+291975157+295735500+299345923
1868+300090227+297463515+293841838+291458676+290706325+290841984+291082014
1858+291058735+290837640+290710064+290879597+291430081+292491474+294257725
1848+296982227+300660232+303981885+304425377+301499503+297972463+296197560
1838+296110053+296460540+296768390+297988319+301084826+305077335+307423141
1828+307323628+306464451+305701798+304288490+302256418+300843824+300645623
1818+301095402+301590804+302323744+303829894+305975666+307703497+308075081
1808+307372368+306770963+307377775+309666117+313080061+316047489+317193805
1798+316923768+317196884+319669698+323934883+326914665+325739755+322004598
1788+319489405+319630729+321325731+323228449+325074490+326749036+327775034
1778+328517762+330572764+335250336+341768266+346665246+346950239+343917924
1768+340449906+338045572+337720583+340008998+343478776+345663370+346384285
1758+347158944+348178893+349278870+351903236+357349233+364040674+368261905
1748+368549867+366982221+365984084+366589594+368641443+370972237+372215078
1738+373086262+376245201+382241462+386472553+384424150+379011256+374301351
1728+371264673+370140500+370971577+373001578+376053396+381596176+390676700
1718+400608831+405100097+401916560+395714380+390957037+389338214+391220145
1708+396115475+402121085+406882974+410838127+416868298+425326962+431696200
1698+432851387+430443095+425571923+419953551+417161797+418634165+423018751
1688+429313936+438701303+450786648+458371268+455804055+449321062+445995138
1678+447759684+453342056+459477441+463801209+467678057+472585302+475967535
1668+474969399+472624821+473586738+478094904+482354957+483477737+483413875
1658+486139165+494357964+508877630+525250706+531498710+527914811+526907986
1648+531274755+534965445+532515543+527426172+525204918+527401427+533981716
1638+544575446+556153896+561568623+558343147+553732296+553660736+558458918
1628+565619018+573147000+581071530+589176353+595901888+601629030+609485996
1618+620905965+631773032+635864120+634142795+631637317+630326143+629593606
1608+628606798+627462059+627004911+628102652+631166385+636099402+642439642
1598+649560296+656733741+662969867+667332677+669957519+672106811+674699832
1588+677461268+679758445+681545977+683229982+685259542+688285956+693323527
1578+700817378+708643440+712905142+714428504+718232399+726456806+736693104
1568+745564924+753460273+762554398+773726327+788517899+810850613+841394684
1558+865623883+871869761+871519440+872573556+874319589+875311750+875426202
1548+875174569+875918323+879044598+884739039+891827213+895982015+890297692
1538+877643094+868214925+864662736+862703050+857645243+850785606+846874005
1528+847544586+850764197+854378414+858731253+864054037+867516189+866656150
1518+862801298+857904501+853073838+849787800+849765071+854307954+863721239
1508+875068622+879278781+870923498+859486738+853173113+852450402+854849346
1498+856560112+854353485+849649739+847346550+849896899+855236547+858297787
1488+855854851+850351114+846079294+844758588+845471474+846575081+847551992
1478+849226245+852580544+857581748+862010106+861968094+856983387+851755845
1468+849863759+850875423+852133148+851986655+852190044+855667446+862830479
1458+869380047+868161768+859737564+851693450+847177035+845496476+845439507
1448+845497356+844166312+841312859+837978576+835180553+834024523+835602434
1438+839222370+841288004+839128595+835339217+833239857+832643768+831665684
1428+830024352+829131392+829452385+830080148+830792448+832361781+833960368
1418+832598603+827679224+822360106+819114613+817827634+817104336+816347604
1408+816258081+816950438+816878292+815154841+813564319+814125214+816498423
1398+819072088+820927001+821263024+818988064+814988625+812108631+811590555
1388+811529113+809422274+806128537+805225386+808689957+815256755+822202102
1378+827942588+832743923+837120004+840609137+842846265+844655280+846803692
1368+848998148+850981663+853167394+855391764+856482320+855908741+854629314
1358+853821258+853897951+854412434+854366023+853249585+851805116+851185125
1348+851653491+852691403+854135946+856581815+860458370+864963567+868429825
1338+870066831+870733893+871634845+873219135+875462055+878297911+881567966
1328+885073597+888647121+892109200+895572525+899593006+904428288+909301036
1318+913062259+915544128+917597663+919966547+922768456+925777493+928564004
1308+930585646+931770271+932760892+934094943+935532227+936562661+937151124
1298+937596394+937886667+937504451+936055216+933965754+931984438+930156287
1288+928166686+926271667+924913128+923976910+923242980+922692130+921857533
1278+920041993+917491570+915369260+914560545+915122027+916471987+917614234
1268+917764172+917176589+916792834+916992337+917492596+918329540+919862066
1258+921888840+923778580+925231115+925987993+925443742+923426133+920416802
1248+916406953+910867876+904399473+899013048+896143318+895090815+893749286
1238+890828086+887071629+884036197+882321032+881539371+881239054+881185311
1228+881286858+881534972+881737554+881513709+880942110+880779267+881546117
1218+882935230+884493712+886226034+888205810+890313603+892538413+894876575
1208+896921386+898162907+898681497+899257569+900770079+903427695+906585791
1198+909475097+912018114+914605783+917303285+919892567+922174787+923891199
1188+925072891+926409434+928626253+931588292+934545272+937197096+939712618
1178+941841966+943104530+943809058+944969928+947212115+950299750+953420893
1168+955627373+956600471+957141423+958304052+960164098+961958595+963162943
1158+963876856+964415829+965238108+966962219+969611990+972119447+973582980
1148+974888509+977795631+982471810+987303059+990807003+992720718+993666175
1138+994229196+994415135+994118777+994143266+995739360+998609456+1000576255
1128+1000014920+997761955+996200467+997213891+1000886250+1005435366+1008641412
1118+1009788938+1010273874+1012172632+1015916111+1019624030+1021473738
1110+1022247846+1024119476+1026978647+1028280877+1027287396+1025816825
1101+1024582782+1022767316+1021091669+1021516410+1023785138+1025942421
1093+1027907314+1030819055+1033344256+1032971426+1031138142+1032637162
1084+1039149996+1046531595+1049683752+1048267950+1045522717+1043697939
1075+1042778584+1042280891+1042887610+1045877437+1050783033+1054741632
1067+1055227008+1052144725+1047486070+1044802572+1047166396+1053407948
1058+1058393022+1058996076+1057072976+1055805133+1056901481+1060383210
1050+1064234029+1065876975+1065316006+1064980496+1066178832+1067529965
1041+1066472550+1062066994+1056619127+1053403036+1053345553+1055162707
1033+1057917544+1061858987+1066867816+1071458357+1073741823+1072894468
1024+1069236626+1063458601+1056345425+1049251899+1044349457+1043506868
1015+1047181940+1054103751+1061398466+1065950294+1066575637+1064245980
1007+1060542533+1057219908+1055744204+1055510022+1053961585+1049811695
998+1044637603+1040801667+1039676211+1041196640+1043236318+1042923684
990+1040152422+1037660362+1036954147+1036840649+1035988161+1034488189
981+1032864453+1031238444+1029529363+1027553400+1024797902+1020775222
973+1015981805+1011752950+1008427979+1004905705+1000734992+996929484+994338589
963+992550837+990639395+988052679+984669125+981163348+978813234+977695110
953+976086918+972627772+968129834+964295071+961551158+959107342+956615575
943+954737200+954049242+954148590+954128354+953670766+953140005+952943436
933+952940136+952631167+952241694+952797383+954636532+956435722+956570923
923+954853118+952227909+950077885+949731010+951021582+951965425+951331650
913+950132508+949322620+948329726+946738983+945120746+943663372+942107237
903+940923638+940503663+939885872+938162568+936425553+936579598+938628514
893+940477048+940348153+938447488+936479150+936084910+937183092+937846194
883+936406564+933611840+932021611+933162097+935922068+937965998+938203114
873+937152004+935371144+932996395+930756701+929850764+930316123+930573915
863+929321176+927054280+925162414+924471524+925013429+926419919+928015940
853+928804126+928143663+926524400+925206993+925224663+926835715+929399921
843+931554418+932079093+931092065+930095871+930402054+931765359+933087165
833+934104254+935500993+937506431+939128408+939053182+937451368+936153831
823+936507158+938098047+939796569+941066245+941956932+942535936+942555806
813+941957078+941907881+944002989+947575193+949755352+949477764+948573073
803+947631870+944574735+939189116+934969719+934665076+937354146+940272633
793+941740565+941927017+941809706+941970569+942232540+942547301+943682802
783+946177575+949090123+950637167+949809682+947303104+945318782+945721160
773+947918769+949386701+948508919+945976166+943017206+940101945+937978389
763+937949135+940326817+943748716+946603122+948315575+948711574+947161598
753+943619087+940088381+939501531+942558299+946440353+948101188+948258532
743+949619198+952526027+955392751+957759874+959895675+960853815+959540514
733+956828935+954967863+955208132+956166346+954942201+950870837+946537428
723+944295461+944061058+945062604+946863627+948168496+947647267+946685680
713+948675648+953250645+954803114+950255392+943921531+940723696+940088968
703+939445808+939465751+941544142+943248603+941065218+935190484+929220142
693+926400709+926791943+927239779+924327891+917693492+910258370+905702216
683+905962207+909661915+912467857+910951241+906496707+903290514+902582833
673+901167911+895332550+885247291+877538393+879775668+887712883+892194837
663+891300705+888681948+887065910+885170305+881655363+878736216+878718912
653+879647065+877480984+872042135+867298723+865725724+866131621+866576231
643+866086970+863803137+859421997+855033525+853963718+856603811+859016319
633+857396029+852989741+850143620+850121331+849584411+845350204+838638746
623+833479832+832845177+837085104+844288829+850268190+849951889+843529018
613+838454714+841118562+849065528+854025087+852517489+849325960+849709494
603+852981089+853692729+848342377
##END=
