##TITLE=<SNM>
##JCAMP-DX=4.24
##DATA TYPE=INFRARED SPECTRUM
##DATE=3/5/2025
##SAMPLING PROCEDURE=Instrument type and / or accessory
##ORIGIN=Admin
##XUNITS=1/CM
##YUNITS=ABSORBANCE
##RESOLUTION=4
##FIRSTX=4497.3318
##LASTX=599.83466
##DELTAX=-1.4281778
##MAXY=1.8469273
##MINY=0.31716844
##XFACTOR=1
##YFACTOR=1.7200851e-09
##NPOINTS=2730
##FIRSTY=0.33562234
##XYDATA=(X++(Y..Y))
4497+195119617+195740029+196520724+197315246+198112696+198610457+198371080
4487+197295165+195849339+194899316+195047783+195895842+196248670+195427795
4477+194077644+193367864+193725370+194647880+195491295+195953642+195905129
4467+195274737+194259723+193370411+193066182+193380668+193864880+193880456
4457+193228181+192519354+192616709+193629869+194716751+194993015+194497125
4447+194089079+194431096+195193911+195378971+194484824+193097976+192157378
4437+192010660+192363922+192684887+192456356+191493754+190229124+189379540
4427+189264685+189694563+190321212+190769109+190736830+190286889+189792646
4417+189545143+189636780+190009724+190321403+190163839+189560909+188756113
4407+187730410+186578953+185916664+186165536+186903557+187430651+187489716
4397+187299164+187297535+187667360+187956723+187699292+187234225+187108715
4387+187110257+186727143+186025247+185344124+184776331+184481285+184764549
4377+185535369+186259582+186547125+186456597+186308268+186323567+186371456
4367+186185807+185867770+185743750+185678188+185195120+184459125+184391138
4357+185434878+186775258+187260804+186819179+186447362+186869217+187658784
4347+187824265+186994883+185765737+185014634+185118608+185689519+185986003
4337+185730877+185388513+185419492+185593827+185449605+185076246+184921437
4327+185104227+185354745+185421901+185257424+184941674+184621228+184436238
4317+184447049+184681280+185119977+185546718+185694492+185720949+186160234
4307+187115005+187960327+188199357+188080795+188074557+188327778+188779729
4297+189177657+188994260+187960171+186579785+185720360+185900516+187060670
4287+188665342+189938947+190281362+189675071+188708380+188138837+188355552
4277+189190235+190144400+190739186+190765990+190370141+189946068+189886865
4267+190320502+191030472+191657243+191975575+191929938+191616579+191402636
4257+191689158+192320329+192619343+192187109+191340367+190755923+190926256
4247+191843481+193046500+194055103+194705298+195022885+195031427+194809722
4237+194476802+194019792+193352184+192573775+191970169+191753074+191938515
4227+192379359+192779799+192846799+192613486+192495635+192903871+193824319
4217+194749757+195115458+194892039+194606869+194743675+195331896+196041294
4207+196462179+196478553+196431062+196604686+196719697+196354983+195578602
4197+194779107+194206723+193935882+193982160+194319083+194883306+195521010
4187+196020191+196330016+196524934+196472783+195924153+195062770+194567383
4177+194944242+196026134+197197446+197912614+197997131+197684153+197430967
4167+197524493+197868987+198240632+198535106+198687956+198685357+198721517
4157+198955315+199143303+198968708+198598692+198454037+198602625+198805081
4147+198984457+199263061+199665147+200025547+200081129+199627688+198845727
4137+198406009+198813674+199735889+200452132+200810712+201209281+201819194
4127+202379398+202606629+202388910+201752818+200969662+200487650+200500229
4117+200786716+201145608+201681157+202459392+203200255+203549306+203415618
4107+202947762+202423163+202207748+202602211+203597941+204802224+205702955
4097+206050221+205920414+205460424+204761057+203926218+203091742+202480287
4087+202428500+203050333+203912426+204442327+204569275+204647710+204942288
4077+205401048+205780004+205886039+205763665+205626841+205633876+205800986
4067+206081876+206445810+206835716+207043248+206786631+206078671+205344617
4057+205004974+205119828+205502942+205924105+206171227+206159653+206034489
4047+206095286+206572256+207323844+207786952+207551803+206933193+206599111
4037+206796057+207308683+207900438+208390991+208575306+208406931+208101906
4027+207909777+207906970+208037175+208247046+208518823+208763727+208799055
4017+208605956+208479961+208658194+208921256+208890900+208666320+208775387
4007+209431023+210220018+210716220+211015614+211372427+211666000+211569875
3997+211055395+210525165+210469600+210920356+211342765+211352121+211320588
3987+211811037+212657121+213074195+212543739+211375425+210510143+210740286
3977+211967232+213327155+214047088+213936496+213212318+212326817+211867936
3967+212172736+212981396+213688040+213988197+214109895+214314655+214477970
3957+214414730+214291421+214378190+214674517+215067594+215489380+215701902
3947+215416368+214808829+214419859+214507303+214895875+215349992+215678858
3937+215651899+215297944+215073225+215234080+215292798+214738468+214003600
3927+213920781+214635014+215600821+216314708+216657140+216738711+216853341
3917+217370333+218224110+218786982+218663552+218232046+218101026+218327252
3907+218474351+218225982+217624957+216958319+216636522+216917118+217539228
3897+217906298+217853263+217829734+218174506+218564256+218608403+218729495
3887+219458195+220355859+220532307+220064382+219700361+219534741+219291795
3878+219238361+219768574+220730587+221709874+222562074+223207141+223472040
3868+223536181+223664931+223612797+223057150+222308282+221949580+222215293
3858+223157121+224827303+226747361+227442223+226293262+224716485+223836546
3848+223776875+224158741+224525361+224764132+225171710+225989761+227048367
3838+227872915+228161914+228103854+228098587+228357612+228794471+229267785
3828+229724414+230112085+230494644+231111401+231974464+232702991+233245453
3818+233864323+234263811+234008563+233541712+233604276+234395471+235653535
3808+236844373+237492750+237738659+238073520+238639337+239323509+240174584
3798+241045756+241478371+241458220+241651909+242543855+243931708+245346538
3788+246676540+248190994+249970157+251764237+253587114+255860468+258715407
3778+261656768+264259785+266703784+269526825+273134270+277447440+282061391
3768+286804543+291822832+297151709+302618848+308142227+313867698+320055324
3758+326950063+334781240+343688853+353318338+362619703+370730385+378141198
3748+385935713+394595182+403673490+411837051+418771189+425941446+434519413
3738+444641271+456099039+468503330+480899547+491955350+500447864+505895321
3728+508907840+510729607+512359818+513976930+515320393+516792590+519710821
3718+524967378+532172184+540557069+549599893+558205373+565084241+570894852
3708+577112591+583904932+590899053+597758931+603801226+608689189+612996590
3698+617474548+622608541+628242842+633612747+638148506+641789892+644423525
3688+645637182+645782859+645414160+644265511+642309674+640397707+639381082
3678+638869825+637274024+634259911+632645814+635009506+641240863+648427858
3668+652824107+653694499+653315959+654260369+657518849+662287678+666788715
3658+669370716+670106381+671129382+673589199+676152280+677503644+678166194
3648+678952659+679723600+680239224+681029431+682448229+683982973+685712115
3638+688827898+693389784+697444432+699624676+700569363+701071056+701175844
3628+701667766+703600247+707026513+712182753+718869093+724097132+723801757
3618+719133351+715454956+715057634+716746372+719685429+723120912+724560362
3608+723504511+723815895+728348466+735049291+739517131+739679511+737409379
3598+736241047+738184894+741608596+742866469+741314122+739996301+740990402
3588+743523682+746089535+748182663+749821918+751024209+751346543+749695992
3578+746237707+743865213+745208746+749257018+752667760+752912820+749519820
3568+744868947+743278830+746305764+750649965+752758341+752820576+752865139
3558+753003401+751158728+746406255+741515104+740450660+743746495+748149189
3548+750744912+751816149+753063141+754786254+755995129+756198606+755426695
3538+753591725+751353404+750007515+750039464+750723497+751263447+751396650
3528+750392361+747437503+744323523+744951004+750294573+755837115+756689073
3518+754244086+753774480+756773970+759111604+756644649+750520436+745771913
3508+745536971+748093191+749624816+749302066+750156311+753904149+757533684
3498+757618443+755874054+756470487+759773045+762277910+761760068+759396306
3488+757182658+755717080+754523452+753300993+752416047+752871168+755793730
3478+760580093+764446372+765564943+765133455+764657404+763765457+762030771
3468+760313202+758705966+755583115+750637005+746969422+748544501+756019524
3458+764969134+768686409+764910919+758581981+755552344+756387668+757748943
3448+757567020+756736130+756452537+756482407+756423776+756801969+757861701
3438+758610604+758328743+757928927+758253686+758569991+758777350+760548144
3428+764097564+766364369+764329317+758649761+752954611+750350086+751012288
3418+752728124+753243887+752201966+750743803+749841115+749658637+749559462
3408+748591420+746964086+746319486+747745838+750562365+753578280+756541039
3398+759598675+762407093+764504934+766100250+767480999+767757731+765911257
3388+762898946+761440367+763265219+766666189+767838818+765089585+760594231
3378+757317663+755908776+755626915+756230140+757048970+756267079+753381525
3368+750429508+749256949+749528968+750337126+751844633+754430584+757611721
3358+760439544+762292949+762477506+760220127+755955764+752026210+751436777
3348+754748622+758892464+760583350+759719958+757890324+755514919+752220817
3338+748859212+747600576+750238714+756511030+763879324+769542802+772500363
3328+772944465+770821467+766756908+763321148+762713072+763691579+763116977
3318+760259076+757197489+756083769+758345792+763994300+770048377+772628438
3308+771571408+769959183+769236685+768273148+766728147+765900168+766385922
3298+767345510+767778246+767518978+767280849+767552799+767236632+764512558
3288+759667771+755701694+755061045+756875709+758672908+759796331+761321511
3278+763575564+765771540+767359855+768208002+767937091+766618022+765596477
3268+766004956+766893438+766324865+764173313+761529631+758841387+756786792
3258+756552612+758237608+761191149+765496194+770612653+773864965+773098113
3248+769221646+764625039+761446951+761127805+763164728+765110515+765538053
3238+765546301+766120279+766021797+763993261+761422695+760714336+762114906
3228+763388373+762696716+760651130+759058240+758750529+759260539+759830429
3218+759877902+758964194+757006556+754742038+753806499+755309571+757958658
3208+759110773+757852623+755408745+752871931+750353828+747966018+746372920
3198+746223084+747236244+748484622+749421616+750155756+750899738+751236349
3188+750042167+746901573+743537473+742548709+744728675+748498413+751719123
3178+753191701+752580575+750461319+748566886+748313302+748927615+748111626
3168+745078385+741860032+740770915+741852339+743433933+744036741+743518414
3158+742946515+743073342+743367054+743043611+741818311+739223003+734949839
3148+730256621+727297882+726946232+728553121+731145518+733607830+734751143
3138+734564230+734573517+735920099+737740515+738140262+736222474+732722260
3128+729212968+727179995+727391651+729304519+731167210+731361817+729661297
3118+727009091+724440258+722568418+721692620+721803021+722365079+722375475
3108+721180461+719224347+717625012+717079518+717352438+717711989+717781709
3098+718011037+719007771+720309306+720429965+718625766+715933779+713853195
3088+713060215+713339234+713919034+714009199+713218367+711508284+709349801
3078+708099413+709046942+711451108+712769067+711440158+708460558+706147250
3068+706143854+708369353+711271887+712925695+712176100+709414185+706248295
3058+703838238+701890995+699905843+698572775+698613872+699145367+698811736
3048+697833367+697576872+698384822+699052222+698669801+697830179+697358079
3038+696824158+695328779+693116517+691346277+690512616+689907035+688810156
3028+687587628+687142902+687872191+689425994+690963579+691457025+690259724
3018+687665457+684813307+683042444+682928716+683525148+683126718+681289530
3008+679427463+679045804+679916543+680291202+678900958+676287354+673947364
2998+672653106+672087583+671563504+670617985+669377369+668406277+667842556
2988+667220689+666461391+666058871+666122701+666188678+665776872+664651578
2978+663051688+661694710+660950243+660412234+659821692+659563049+659705330
2968+659717597+659613086+660013180+660784745+660659720+658621896+655205887
2958+652029325+650273293+649890871+650298797+651250622+652485555+653152886
2948+652413964+650282649+647418094+644607250+642538656+641434846+640989774
2938+641000031+641629799+642926829+644542659+645871291+646164657+644906991
2928+642379325+639444357+636738024+634475516+632857607+632079112+631878338
2918+631497441+630435699+629133541+628322334+627842679+626794382+624785320
2908+622451844+620676892+619831726+619921406+620783135+621783404+621973922
2898+621024384+619493868+617966054+616553494+615296869+614387527+613908495
2888+613695385+613411099+612826309+612200214+612066457+612495450+612855625
2878+612415612+611110681+609586264+608329084+607040232+605225914+602986138
2868+600800211+599088395+598211141+598294861+598901273+599163174+598415104
2858+596827966+595384843+594885159+595026609+594860209+593856128+592039871
2848+589810143+588141504+587905939+588649504+588932682+587965610+586252615
2838+584606707+583214038+581878474+580708202+580053658+579809984+579348660
2828+578281859+576844349+575508439+574640472+574345825+574247759+573708329
2818+572561551+571272145+570273574+569589956+569020517+568238522+566956947
2808+565405016+564258272+563773558+563439927+562755998+561882556+561242045
2798+560871718+560443175+559691639+558592473+557262731+555978072+555111560
2788+554615445+553756245+551946883+549646327+547799784+546724112+546056434
2778+545410449+544698382+544052258+543565291+543058226+542315942+541505740
2768+540957717+540645882+540264119+539608015+538666239+537550856+536363292
2758+535008255+533356941+531659713+530382955+529576599+528816990+527779158
2748+526564877+525495581+524710606+523957407+522841781+521347961+519928020
2738+518971898+518385064+517759212+516750661+515281202+513618384+512259430
2728+511535235+511312110+511157180+510736642+509993111+508995094+507725162
2718+506153306+504493329+503122282+502162938+501379175+500540247+499656478
2708+498821535+497999378+497013316+495792036+494654441+494063171+493956928
2698+493694472+492819575+491541257+490289656+489108503+487761054+486303619
2688+485213670+484859699+485124684+485619343+485931698+485640377+484538127
2678+482975939+481612896+480699050+479861473+478731362+477498196+476542629
2668+475822730+475099089+474515894+474402824+474666353+474810749+474415229
2658+473393649+471965218+470425658+468894275+467436182+466332130+465820387
2648+465670586+465415442+464861562+464051915+463033419+462026219+461449157
2638+461351819+461167435+460465417+459559125+458888433+458275956+457337506
2628+456190520+455276293+454811226+454676984+454603313+454375683+453982728
2618+453509622+452938624+452226592+451474155+450855614+450458327+450190223
2608+449799209+449159045+448540677+448321329+448466210+448552043+448229397
2598+447538953+446873354+446577702+446485701+446047594+445032424+443824970
2588+442915490+442377307+441952403+441469109+441058135+440941253+441048952
2578+440976321+440408060+439474116+438571982+437964218+437695386+437744384
2568+438030438+438376439+438662146+438870960+438872693+438447165+437634814
2558+436763694+436100625+435720179+435571937+435454744+435159611+434793477
2548+434687337+434898784+435072808+434878859+434404090+433992561+433776471
2538+433568246+433267257+433121822+433399628+433971216+434404991+434399308
2528+433999492+433420385+432786840+432158146+431714702+431693876+432088703
2518+432531142+432550824+431970470+431077796+430393970+430234467+430468507
2508+430666821+430496056+430016851+429580199+429433621+429518137+429620742
2498+429602411+429494816+429419898+429372460+429176363+428762027+428293011
2488+427897006+427529277+427186117+426981046+426932394+426868842+426613906
2478+426212080+425923947+425922526+426029359+425919650+425553550+425182183
2468+424964602+424807940+424566761+424234274+423943473+423829744+423862907
2458+423869698+423764737+423629732+423529380+423441017+423392088+423443685
2448+423511880+423433636+423234317+423106450+423107940+423096678+422973421
2438+422765300+422456618+421979632+421433756+421084913+421050157+421133495
2428+421040177+420659003+420112054+419603707+419255384+419072524+419016180
2418+419027164+419001522+418866552+418728532+418836612+419266368+419697060
2408+419728281+419443649+419349880+419658041+419965163+419801259+419216469
2398+418675896+418544356+418766303+418968117+418839627+418396599+417848957
2388+417293725+416582802+415437583+413631305+411004880+407347068+402470298
2378+396512589+389988837+383427314+377091203+371112737+365683334+360923965
2368+356668647+352622142+348864636+346047001+344881926+345532382+347709264
2358+351295935+356533573+363683385+372867799+383605980+393975601+401200505
2348+403521748+401431496+397399337+393725828+390533950+386983837+383184333
2338+379696386+376534516+373429926+370475830+368121425+366695107+366164133
2328+366265559+366605116+366811573+367000705+367879864+369986923+373043728
2318+376262185+378993883+381083338+382917199+385041965+387560726+390095808
2308+392305333+394086315+395392320+396283746+397064667+398015314+399076848
2298+400013080+400737760+401338282+401916002+402482496+402937340+403190439
2288+403353512+403664342+404153180+404538512+404541977+404197639+403771313
2278+403444232+403185934+402944721+402798419+402787123+402736531+402446562
2268+401980282+401608534+401518092+401655973+401813813+401819496+401655037
2258+401419922+401231623+401158506+401189555+401274730+401409353+401621598
2248+401878197+402084169+402194779+402297627+402552805+402994447+403428153
2238+403655818+403731359+403824851+403960653+404072475+404154185+404211811
2228+404246048+404338915+404562318+404818051+404952570+404977832+405040344
2218+405241777+405576066+405964967+406297386+406485339+406533193+406557970
2208+406717162+407081737+407570506+408028884+408374505+408647806+408928870
2198+409235264+409522011+409780446+410092766+410542898+411107485+411690785
2188+412247125+412810465+413395255+413916527+414266444+414467461+414681334
2178+415038598+415511149+415978780+416401225+416898864+417634841+418636150
2168+419793462+421009822+422260487+423564829+425003621+426682517+428617736
2158+430738829+433007054+435464585+438181244+441128444+444059253+446641428
2148+448771426+450618177+452396838+454255025+456220910+458100477+459647800
2138+460987625+462662121+465134413+468331906+471709000+474729663+477255631
2128+479494021+481750431+484241816+486869142+489138200+490540226+490922820
2118+490334704+488829484+486613444+484078535+481513722+478957017+476372902
2108+473800084+471241543+468517191+465391498+461885428+458354027+455177084
2098+452403595+449751839+446972875+444142315+441523478+439264851+437346127
2088+435670592+434127081+432693937+431456786+430415004+429429047+428457539
2078+427613621+426938042+426372588+425948204+425732494+425599707+425297991
2068+424776372+424237427+423829363+423521791+423338030+423391568+423596709
2058+423661543+423433012+422965728+422326292+421635155+421153351+421043434
2048+421167454+421268847+421233086+421131243+421130723+421352913+421738106
2038+422104067+422376572+422664774+423081085+423605545+424166390+424738047
2028+425294352+425741850+425952639+425829832+425350385+424598814+423751604
2018+422957931+422209271+421390164+420505668+419756731+419302233+419030456
2008+418664079+418039128+417236064+416493226+415995587+415717434+415496353
1998+415232893+414938904+414648068+414360941+414024642+413557704+412974924
1988+412442424+412102140+411892772+411649757+411333902+411043171+410821743
1978+410587564+410282452+409998686+409868047+409855295+409765338+409480497
1968+409087854+408716521+408383237+408109797+408015162+408113505+408170681
1958+407954382+407520641+407110013+406871121+406783313+406741072+406654095
1948+406547713+406547193+406675960+406758224+406645952+406414302+406170178
1938+405869917+405509396+405273553+405312017+405517158+405654727+405613595
1928+405481016+405431359+405527068+405658746+405756188+405928167+406217166
1918+406411287+406337478+406152644+406093284+406171078+406256253+406255006
1908+406146545+405978447+405842749+405778608+405729541+405632134+405492867
1898+405350308+405211734+405067338+404943838+404880632+404851421+404781908
1888+404653834+404531408+404515676+404699887+405047379+405321893+405332670
1878+405211907+405233149+405430458+405622570+405701195+405663563+405469476
1868+405115262+404784715+404699263+404897681+405256054+405600635+405783563
1858+405761975+405635876+405555795+405615119+405838175+406172950+406495145
1848+406739304+406977122+407249973+407436159+407444406+407382656+407401264
1838+407565654+407878217+408306656+408798716+409273728+409606631+409730928
1828+409752898+409802589+409884611+410024501+410353558+410890424+411430097
1818+411774400+411973477+412241754+412703875+413314758+413950971+414517118
1808+415013822+415516659+416067871+416620434+417134741+417693680+418428202
1798+419346415+420370594+421473537+422598935+423553775+424283064+425088172
1788+426187407+427430969+428643274+429961719+431609325+433492600+435275141
1778+436778352+438165027+439705453+441406631+442895877+443874765+444609287
1768+445580968+447003750+448794158+450740153+452634794+454372079+455998201
1758+457582255+459112875+460625441+462250939+463991620+465592757+466854962
1748+467983963+469274028+470734755+472254702+473820910+475460061+477155694
1738+478936364+480898196+483027640+485078007+486887023+488694271+490712066
1728+492861746+494993512+497075933+499169616+501428520+504097498+507265882
1718+510553782+513290886+515370535+517304298+519416208+521724977+524247965
1708+527094466+530300344+533710532+537208008+540917382+544914160+548903524
1698+552587186+556006002+559181628+562190648+565376982+569001112+573032474
1688+577364235+582081051+587271873+592474755+597035948+601179236+605540556
1678+610479250+615881658+621031175+625280915+629124462+633684200+639334233
1668+645212970+650509204+655472848+660506557+665369086+669637953+673490648
1658+677502258+682243019+688280879+695567879+701887114+705403129+707634659
1648+710291855+714069563+718578084+722777717+726364422+729742730+733217717
1638+736644676+739411165+740904534+741632783+742617389+743804711+744468091
1628+744398510+744150539+744002574+743489307+742369696+741156247+740007597
1618+737964368+734083189+729465305+726006604+723687336+721386918+718558263
1608+715550665+712826451+710415424+708188192+706193614+704628099+703678561
1598+703344029+703281933+702996399+702315969+701466784+700636449+699751710
1588+698663494+697322941+695800950+694322758+693287283+693012283+693336281
1578+693685921+693765967+694182694+695677657+698022291+700451407+702467330
1568+704484570+707422934+711481740+716018885+720458587+725021582+730595242
1558+737436061+744375570+750982557+757909799+765848537+774994486+784463741
1548+792604293+798622539+803104379+806671956+809394368+811651054+814249065
1538+817129837+819630890+821641477+823451220+825263042+826988165+828612034
1528+830410134+832594467+835056433+837681818+840716376+844546964+849036080
1518+853389014+856769054+859013058+860869512+863246788+866491685+870316727
1508+873854088+876030174+877120954+878668658+881135128+884005574+886716065
1498+888856320+890189666+890867254+891290357+891652264+891947015+892287923
1488+892987480+894243482+895901241+897517971+898680482+899435691+900221047
1478+901193594+902020464+902473783+902852254+903714261+905393643+907619766
1468+909588770+910648988+910954481+911209174+911565398+911480847+910358880
1458+907977515+905541538+905369871+907842857+911362475+914242901+915586919
1448+915636957+915292445+915156470+915375541+916084247+917367831+918867646
1438+919754394+919265245+917723501+916334019+915660381+915500635+915755813
1428+916685323+918190681+919480365+919923081+919703525+919193930+918473720
1418+917907920+918008134+918372120+918035717+916890117+916023328+916396878
1408+917594664+918242521+917555161+916223964+915416985+915280247+914992219
1398+913846272+911931464+909967311+908717615+908239693+907624617+905713205
1388+902214100+898514082+896838027+898092851+901230949+904551041+907153140
1378+909288960+911691809+914683260+917717056+919965149+921375699+922610355
1368+924140455+925791284+926960725+927107164+926443992+926305799+927994121
1358+931129933+933784079+934518358+934092345+934472964+936447235+939049473
1348+941084248+942337824+943135655+943579549+943705613+943772353+943967653
1338+944307729+944949279+945921895+946647026+946626651+946509041+947538418
1328+949948475+952606156+954316448+955071726+955793045+957067413+958471726
1318+959061436+958349958+956651864+954733590+953468302+953443144+954534133
1308+955817232+956170546+955338340+954240213+954025023+954985373+956383102
1298+957129301+956717149+955580350+954295726+952522575+949544293+945844898
1288+943028025+941848397+941203451+939548534+936666792+933539158+931012531
1278+929119138+927336839+925166159+922643621+920395043+918952544+918107447
1268+917182235+915777367+913952238+911864308+909577127+907233187+905138048
1258+903525545+902391658+901601034+900853587+899646168+897851602+896281721
1248+895895696+896445141+896773782+896351442+895651537+895398923+896241248
1238+898385245+900846796+902146875+902262128+902589591+903926886+905789647
1228+907368607+908113628+907985415+907794413+908502148+909984914+911322140
1218+912269322+913472653+915196043+916884711+918246055+919863687+922322950
1208+925468464+928878305+932231940+934852058+935993847+936107090+936725769
1198+938532047+940396818+941075030+941345594+943023867+945990507+948169226
1188+948835725+949538610+950902241+951475110+950941814+951640955+955248591
1178+960139950+963622213+965409848+966982848+968478643+968593480+967443444
1168+967115912+968775820+971353939+973739116+976354591+979624853+982648253
1158+984531320+985597775+986379458+986757444+986525551+985875130+985317508
1148+985428672+986430258+988027583+990031933+992776106+996491371+1000807989
1138+1004940951+1007633007+1007592603+1005192387+1003000569+1003447374
1130+1006326205+1009061299+1009312320+1007562455+1006439518+1007324187
1121+1009005440+1010273432+1012239387+1016596201+1023154883+1029706911
1113+1032887909+1030477021+1024487189+1020160729+1020730341+1024361401
1104+1027400395+1029178050+1031000961+1032785963+1033245727+1032228756
1095+1030915024+1030469882+1031494962+1033627178+1035929121+1038579663
1087+1042854075+1048134162+1050831762+1048476109+1043284455+1039397177
1078+1038544180+1040039697+1043111610+1047787710+1053533244+1058381426
1070+1060707971+1061050958+1060812552+1059869875+1057247400+1053651131
1061+1051333456+1051669721+1054085599+1056679451+1057487817+1056372988
1053+1055601284+1057701412+1062349374+1066548661+1068833346+1070949484
1044+1073665242+1073741823+1068050485+1058871823+1051628415+1049107541
1035+1050206430+1052408712+1054192051+1056046911+1059354528+1063579179
1027+1065634953+1063323100+1058062765+1052856834+1049585047+1048992426
1018+1050759617+1053116101+1054965348+1057384484+1060259434+1060803334
1010+1058203106+1055261139+1053924259+1053494988+1053067796+1052700276
1001+1052500125+1052152217+1051233173+1049951529+1049437083+1050248151
993+1050764052+1048549780+1043516278+1038096890+1034402624+1032690600
984+1032200757+1032277893+1032580406+1032397512+1030539810+1026461114
975+1021201264+1016847499+1014768508+1014832615+1015675424+1015278657
967+1012258168+1007108235+1001408649+995964520+990645207+985534015+981147468
957+977823981+975758921+975256049+976054296+976807079+976113620+974150784
947+972413879+971473281+970398164+968858084+967914367+967831756+967025747
937+964228903+960455284+958054167+958421896+960672900+962420615+962349717
927+961364418+960778727+960804093+961062182+961306618+961306064+961003897
917+960862100+961446821+962631231+963566631+963564483+962672329+961276887
907+959832724+958929065+958619760+957876956+955742315+953042843+952106265
897+954416038+958716647+961669842+960921425+957231040+952878730+949172544
887+946322405+944486465+943725226+943496799+943089359+942518084+942482254
877+943222978+943926347+943906526+943767710+944574273+946517358+948752352
867+950022977+949283570+946517705+943464088+942521341+944143755+946259269
857+947104088+947298972+947737252+947532874+945599908+942348982+938847936
847+936053448+935111534+936727502+940183153+943609765+945343620+945670321
837+946470785+948097427+948539450+946831514+944986080+945052681+946794644
827+949314133+952422916+955620824+957772307+958590721+958941401+959250706
817+959179877+958869186+958653442+957930321+956165140+954334398+954246104
807+956659210+960107862+961700544+959983183+956838570+954994244+954538845
797+953899721+953064743+953242231+954350615+955566697+957272623+959977777
787+962799848+965299655+968791344+973291826+975636599+973370001+968488207
777+964649719+962992029+962367667+961571846+960307597+959024220+958157431
767+957726912+958106076+960145979+963789514+967634516+970410431+971714252
757+971443966+969665410+966838556+963872194+961994255+961942346+963434537
747+965575486+967264778+967729186+967393823+967667921+969146390+970880106
737+971647305+971447154+971562130+973130278+975489951+976014723+973137763
727+968887192+966514004+966633970+967224235+966768628+966091387+966427097
717+966974116+966416077+965905790+967393129+969669914+969061561+964312900
707+958908066+957577839+961703593+968128448+972473966+973695801+973610765
697+972766985+969984140+965291615+960503451+956357529+951433597+945113530
687+939479576+936751897+937187059+940204776+944405309+945902975+941015983
677+932443180+926427705+924522738+923385662+919522017+912833320+908152924
667+911005628+918678029+925669863+930725265+932942309+930381723+924801133
657+922570159+927769991+936125317+938280889+931002135+920835680+916180649
647+920195655+928775042+933385857+929753064+923194244+921256149+925540818
637+932142052+935754747+933403599+926831888+920805948+917909375+918059973
627+920315828+922218023+921721181+919845737+918139396+917006271+916162006
617+913944060+910657235+912112694+922484914+934395759+936314171+931410060
607+932842858+945365936+962883499+976530208+979053300+967072458
##END=
