##TITLE=<SNM>
##JCAMP-DX=4.24
##DATA TYPE=INFRARED SPECTRUM
##DATE=2/5/2025
##SAMPLING PROCEDURE=Instrument type and / or accessory
##ORIGIN=Admin
##XUNITS=1/CM
##YUNITS=ABSORBANCE
##RESOLUTION=4
##FIRSTX=4497.3318
##LASTX=599.83466
##DELTAX=-1.4281778
##MAXY=1.827354
##MINY=0.30299658
##XFACTOR=1
##YFACTOR=1.701856e-09
##NPOINTS=2730
##FIRSTY=0.32413894
##XYDATA=(X++(Y..Y))
4497+190462026+191246075+191561758+190521040+188364882+186577835+186396501
4487+187616906+189004670+189742804+190201977+191052204+192059965+192342900
4477+191547451+190333210+189829855+190651572+192189708+193083854+192677478
4467+191610598+190781754+190417914+190355555+190482462+190698871+190976150
4457+191435359+191951025+191889664+190765170+189074892+188008450+188352116
4447+189830625+191287560+191527277+190279519+188368157+186898666+186477037
4437+187194262+188773061+190386848+190860801+189637209+187434873+185706052
4427+185423641+186348239+187517965+188344166+188803952+188830850+188413109
4417+188138526+188690161+189916135+191053517+191525789+191082376+189724137
4407+187883224+186307069+185600964+186009774+187349608+188795406+189167284
4397+188019937+186191090+184849977+184349563+184325625+184489849+184950196
4387+185865600+186866269+187069562+186096877+184736729+183965025+183752223
4377+183566565+183441164+183631498+183771924+183264874+182206697+181334458
4367+181217743+181813893+182661807+183198557+182923046+181672433+179955976
4357+178710879+178514328+179247752+180429841+181576750+182461666+183214475
4347+183947058+184369141+184207789+183759000+183411551+183004563+182297740
4337+181624942+181479875+181776488+181964826+181651892+180902936+180216444
4327+180233851+181108978+182106512+182190831+181178762+179966990+179436212
4317+179537850+179651798+179413710+178885803+178305152+178038904+178466434
4307+179602118+181059088+182454539+183569226+184183851+184135238+183500248
4297+182529244+181586959+181227585+181923953+183504223+185096523+185774925
4287+185208650+183771031+182182758+181034554+180482709+180290326+180163471
4277+180113948+180468104+181355805+182296969+182631004+182321958+181944722
4267+181914760+182202494+182711488+183341575+183721000+183525692+183031671
4257+182778750+182843368+182895395+182807522+182840846+183262072+183930982
4247+184336570+184189104+183858957+183880566+184225353+184490182+184510058
4237+184325450+183898918+183317549+182940383+182928387+182943185+182661720
4227+182296637+182234715+182397171+182424559+182379905+182706427+183434001
4217+184017682+184221273+184571016+185502076+186529975+186726666+185709116
4207+183971224+182592268+182508895+183595091+184704665+185072217+185175939
4197+185711708+186386940+186399688+185596779+184506293+183579716+182961081
4187+182791429+183231812+184173816+185157499+185598162+185188635+184258328
4177+183520842+183267921+183159226+182932205+182795631+182964952+183326077
4167+183726691+184197947+184710444+184997582+184885245+184670832+184863478
4157+185553140+186338958+186854344+187045273+186998727+186814575+186636831
4147+186605223+186669035+186512936+185854375+184821590+183863843+183402883
4137+183725133+184839575+186205974+187034924+187043837+186594260+186171582
4127+186029107+186058841+185793225+184895402+183735167+183087883+183315237
4117+184165008+185145836+185759620+185663043+184978722+184264684+183901423
4107+183679287+183246837+182833492+183164182+184546762+186249281+187067846
4097+186559850+185415358+184516957+184106817+183995285+184011361+184045106
4087+184089183+184380086+185126801+186015938+186349395+185834657+185001505
4077+184667610+185115611+185864882+186149674+185643045+184810313+184426142
4067+184680113+185021346+184987898+184813360+184942526+185276928+185297837
4057+184826721+184244108+183943783+184000784+184381732+184988056+185479661
4047+185549497+185316592+185066035+184841553+184587932+184348022+184158599
4037+184055157+184116238+184286994+184440186+184726905+185435129+186425606
4027+187150553+187324304+187246797+187273538+187211687+186652154+185797515
4017+185411400+185834465+186542356+186822402+186518120+185980547+185588864
4007+185502303+185749095+186387763+187416468+188499652+189056190+188846593
3997+188282805+187898406+187704675+187424593+187156455+187258775+187721451
3987+188207172+188555146+188758544+188682789+188250163+187734515+187582969
3977+188005438+188792884+189467994+189648959+189328286+188799556+188380082
3967+188269706+188598050+189444178+190654356+191731008+192213227+192149256
3957+191874411+191485652+191008267+190926452+191876600+193625314+194922718
3947+194986478+194666733+195219943+196445252+196948554+196063708+194538145
3937+193505727+193778629+195582330+198034522+199351539+198645767+197107052
3927+196492866+197198989+198223298+198645767+198765424+199464962+200766867
3917+201400649+200129074+197412736+194971348+193994460+194527025+196376063
3907+199824669+204905555+210340824+214061718+215012006+213397203+209734587
3897+205234319+201982106+201517364+203399797+205170384+205044948+204691860
3887+206291778+208752061+209773201+210370541+212409283+213656954+211302389
3878+207783561+207039736+209277761+212551005+215850202+218160673+217942950
3868+216423849+216477434+217807165+217281727+213969572+210549563+209685677
3858+212482062+219225486+228331619+233337030+228804522+219830532+212604048
3848+209060108+209282261+212482850+217322337+222817303+228401071+232468119
3838+232613868+229162810+225278689+222670275+220621306+218382335+216546395
3828+215829240+216428489+219164598+224971797+231808437+234760640+233157798
3818+230905133+228818146+224986717+220116165+217039173+217505036+221407860
3808+226389769+229604437+231898447+235841512+240103902+240965003+239127838
3798+237518919+235727108+232648436+230040390+230214298+233126259+237221046
3788+241458254+245593055+249532863+253822466+259868437+268101946+276630107
3778+283628484+290254265+298849180+310230883+323653605+337310563+348885735
3768+357147771+362024348+363735342+363926219+365203625+368073961+370338708
3758+370658787+371233799+375537815+385246139+398509960+409859722+416233721
3748+421465679+429230454+437878517+443217121+446522972+453149279+465694142
3738+483356857+502415496+517183849+524496543+526881175+529011329+533843496
3728+542000882+551656391+559694698+564930929+568398483+570243651+569680827
3718+567709679+567210982+570409592+576466279+580536024+577699345+569813005
3708+562790689+560009557+561237020+563636782+564072963+562729924+562585487
3698+564818224+567835833+570357232+573498543+578856551+585019359+587736958
3688+585489197+581695856+579437938+579332973+580889584+583382999+586845055
3678+591578666+595326792+594989377+593265179+593411296+592248732+585611919
3668+576241395+569479267+566681920+566368706+566818055+567624362+569506375
3658+571933947+572293321+570016770+568928315+572717523+580913155+587505910
3648+585957108+577724142+568898686+563154476+560301442+558341782+556657265
3638+556790774+559852793+564654735+569472788+574748666+581393675+586172572
3628+584454678+579272453+576532403+577750584+581388281+585243788+587356010
3618+587409280+587161595+587918799+589676970+592360527+595714360+598049715
3608+597510215+595119874+593950025+595449303+598342650+600454766+601355005
3598+602661095+605272153+607718462+608401277+608475596+610464641+614325821
3588+616395419+614081289+610283570+608979372+610428497+612702561+614854603
3578+617252160+619655530+620772844+620004012+618591942+618330318+619603275
3568+621210635+621567733+619790160+616304499+612717971+610578677+610331202
3558+611605840+613474545+614322039+612981696+610355578+608740373+609262010
3548+610800094+611328035+609893761+607439116+605787206+606120488+608114506
3538+609823924+609227407+606640444+604603488+604909662+606566895+607068149
3528+605448181+603177058+601659288+600355090+597968250+594479718+591420361
3518+590339541+590997349+591313049+589753531+586925993+584289368+582927066
3508+583704093+586411676+588580880+587435232+583684725+581065121+581693264
3498+584158276+585838134+585429972+583049472+579414928+575836280+573913955
3488+574075097+574917338+574783864+573497913+571807653+569828975+567153124
3478+564143500+562102691+562256478+564747372+568124040+569883016+568680841
3468+566288188+565842516+567949239+569879374+569000569+565846333+562788623
3458+560871796+559453247+558199132+557766629+558424017+559259953+559116953
3448+557784911+556088206+554908306+554177719+553192724+551935071+551228861
3438+551586589+552644994+553458446+552919962+550523842+547164860+544573695
3428+543627575+543603444+543327705+542641809+541988589+541039877+539177407
3418+537086585+536244519+537056360+538592343+539609490+539235231+537375282
3408+534887681+532641986+530743792+529277261+528700917+528788895+528324031
3398+526790605+525427848+525480803+526185997+525635466+523403885+521164214
3388+520531833+521249986+521788960+521314289+520548224+520527315+521117983
3378+521324621+520740607+519986310+519738730+519963159+520247303+520535650
3368+521108842+521656922+521017746+518671009+516024122+515239319+517044561
3358+520120729+522307025+522306534+520576943+518724595+517980209+518240537
3348+518588634+518470605+517976707+517226192+516138683+514785452+513493582
3338+512670464+512642725+513294684+513962299+514175311+514223082+514627111
3328+515362846+515836046+515378362+513882971+512166618+511236084+511057675
3318+510637780+509497596+508388793+508239454+508953404+509486039+508920832
3308+507417036+506118336+506056660+507018646+507647174+506967126+505522485
3298+504573528+504723498+505769189+507254843+508722495+509891784+510792338
3288+511363989+511201200+510131904+508577429+507107745+506179277+506159699
3278+506977949+508042763+508935332+509656287+510050614+509756664+508827600
3268+507842674+507346709+507298902+506988736+505732344+503843397+502478013
3258+502362646+503092812+503784627+503878315+503134279+501607613+499986944
3248+499252260+499571042+500110366+500166649+499886707+499751377+499942920
3238+500228535+500047885+498974420+497371963+496127970+495561502+495209448
3228+494670229+494008919+493384138+492708993+491653355+489959558+487957169
3218+486530530+486136027+486125625+485590854+484554094+483590392+482760164
3208+481887383+481354468+481545801+481989896+482024990+481791910+481601348
3198+480924802+479170940+477075179+476144119+476706839+477324195+476487558
3188+474490633+472958048+472672538+472711624+471958132+470557585+469240358
3178+468060177+466673394+465249381+464276012+463794162+463342536+462458757
3168+460997024+459198472+457596085+456612700+456121113+455612154+454756920
3158+453498181+451832893+450060152+448948372+448929950+449411416+449512002
3148+449081006+448449850+447778733+447095358+446406485+445565785+444483705
3138+443374481+442470354+441709017+440822542+439581070+438082107+436770659
3128+435886040+435183998+434566992+434428545+434920167+435580987+436024803
3118+436211057+435880682+434666458+432894594+431420672+430607221+429989865
3108+428956502+427505871+426233263+425611670+425510067+425535424+425504498
3098+425359782+425003665+424376327+423453428+422363047+421623424+421615859
3088+421793427+421292068+420246973+419533092+419405362+419280364+418609983
3078+417337235+415774215+414461961+413890100+414057407+414437655+414465814
3068+413977869+413242589+412653987+412327780+412019295+411507219+410907654
3058+410458621+410122187+409590112+408704302+407719482+406958285+406281775
3048+405273453+403978676+402925770+402339165+401889115+401266610+400548772
3038+399990886+399730067+399623176+399286882+398464640+397327047+396283247
3028+395655910+395523136+395572169+395180153+393998992+392401963+391116222
3018+390516133+390437926+390528811+390496415+390123556+389428063+388775018
3008+388475394+388337612+387942374+387205098+386309237+385297238+384126233
2998+382964580+382086931+381560075+381252885+381041204+380791733+380276225
2988+379374269+378303992+377450999+376989742+376716735+376230892+375342945
2978+374325063+373640812+373467201+373620253+373824579+373824159+373341082
2968+372251787+370850679+369731614+369313051+369471706+369625143+369266925
2958+368460898+367637850+366928138+366065163+365000769+364117867+363670724
2948+363464086+363196438+362722047+361962532+360941532+359893704+359100846
2938+358655210+358424756+358160750+357729578+357316969+357195753+357277918
2928+357189168+356758872+356104181+355256547+354119760+352886834+352065922
2918+351842404+351746965+351277793+350552600+349995659+349700973+349441800
2908+349082811+348737902+348557812+348405600+347878324+346865205+345838986
2898+345241979+344926804+344570827+344205569+343988389+343882654+343789912
2888+343644460+343332893+342813042+342234702+341747072+341269494+340533269
2878+339359392+337971418+336936339+336597488+336712085+336846819+336896097
2868+336963762+337000887+336869234+336582218+336215839+335706985+334943792
2858+333953998+332886207+331948738+331401744+331389171+331703610+331877781
2848+331599801+331015472+330560274+330421792+330254275+329608655+328557605
2838+327617299+327142068+327055455+327064106+326933574+326606071+326134937
2828+325550048+324882293+324267564+323854254+323641522+323522408+323407812
2818+323234096+322935417+322446807+321726237+320854857+320104237+319718876
2808+319600567+319403491+318980094+318517331+318184154+317883689+317447578
2798+316868748+316239694+315612602+315002846+314431300+313918524+313476985
2788+313090047+312679749+312167358+311605338+311165866+310903856+310610711
2778+310052264+309288056+308588500+308087561+307688401+307246792+306692583
2768+306028821+305334343+304725428+304249181+303841544+303373107+302720133
2758+301883005+301062899+300487221+300143922+299807243+299312994+298689789
2748+298045360+297435499+296877403+296443078+296217563+296094982+295774903
2738+295113803+294314781+293629568+293092117+292658809+292352477+292146820
2728+291897840+291469032+290844303+290132980+289465470+288835313+288160344
2718+287559781+287305827+287371146+287329153+286877667+286198705+285659399
2708+285376883+285164922+284769894+284126393+283411584+282810882+282307860
2698+281821403+281407515+281125840+280836512+280370545+279824829+279472529
2688+279427314+279582765+279814479+280018718+280010172+279659046+279110686
2678+278641093+278333431+278049935+277637850+277086215+276553756+276208584
2668+275993365+275693741+275265038+274878941+274633322+274429732+274144467
2658+273753291+273286150+272780869+272307704+271960360+271762006+271629880
2648+271487598+271337593+271162564+270874567+270455741+270048034+269813991
2638+269758584+269736029+269614183+269403185+269207177+269066909+268891862
2628+268546777+268000396+267408292+267023596+266973110+267129016+267233753
2618+267127843+266838935+266489297+266177572+265933898+265717751+265453658
2608+265135664+264873146+264744243+264651326+264452656+264185726+264016581
2598+264007370+264064651+264075701+263987372+263789175+263524749+263313908
2588+263281897+263420134+263533575+263400381+263020676+262627661+262418134
2578+262393163+262478637+262609519+262669427+262559068+262347965+262190658
2568+262118843+262045644+261923412+261829025+261925129+262279775+262679829
2558+262782307+262526181+262219500+262148718+262269741+262344883+262229779
2548+261950626+261600480+261237411+260857320+260441944+260024133+259657912
2538+259323491+258960702+258593903+258300863+258090040+257946672+257913803
2528+257982501+258033127+258009382+258000030+258070900+258167197+258203498
2518+258125922+257913768+257605335+257298373+257112837+257132888+257294065
2508+257354866+257132117+256725917+256375193+256176874+256077881+256025853
2498+256004892+256011932+256072680+256206906+256353654+256406137+256322694
2488+256129522+255844853+255493394+255138870+254788812+254354558+253852044
2478+253529584+253602625+253931039+254130426+253976779+253578109+253177915
2468+252926587+252866137+252981784+253149161+253139722+252826035+252334816
2458+251912890+251688496+251591201+251456466+251200481+250902730+250690909
2448+250585891+250527087+250506126+250581181+250748032+250854730+250709279
2438+250295040+249828967+249571844+249603382+249767642+249806815+249586834
2428+249228458+248977358+248944891+249035497+249112005+249150793+249210473
2418+249305106+249368586+249349533+249294214+249287805+249319956+249282814
2408+249153875+249099344+249283427+249641715+249962879+250140622+250246113
2398+250411370+250727158+251264153+252201867+253929480+256991289+261963812
2388+269406285+279834373+293665607+311186635+332509987+357459689+385475507
2378+415669775+447046886+478671262+509430001+537560941+561019104+579044486
2368+592800069+603580387+611394159+615924636+617402410+615765420+609960235
2358+598723283+581572644+558482190+530336296+501579524+479377192+468766142
2348+470919236+484023595+502969215+520331079+531610619+537487147+540228317
2338+541288193+541226762+540257176+538889235+537727547+536700978+535031312
2328+532002530+527414055+521337930+513850820+505093029+495332555+484911542
2318+474231671+463701945+453606228+443966865+434391000+424165417+412861010
2308+400838941+388904850+377600689+367056603+357257639+348138092+339555453
2298+331381501+323581212+316186529+309256289+302833503+296891902+291369005
2288+286271571+281702341+277764442+274466979+271721886+269402222+267386472
2278+265571021+263914155+262487043+261387871+260564000+259819965+259032378
2268+258233075+257460321+256684624+255915828+255234274+254669453+254160564
2258+253660483+253175446+252691563+252163692+251591831+251025311+250500820
2248+250043923+249683568+249408513+249178689+248997812+248872113+248718606
2238+248451991+248129356+247879762+247739476+247663266+247632165+247648941
2228+247670988+247638399+247564710+247530825+247560104+247559071+247445561
2218+247283420+247207332+247262161+247396651+247574814+247811572+248104016
2208+248376375+248522002+248516066+248472392+248553663+248824289+249203504
2198+249543615+249768377+249960673+250254203+250627849+250938279+251154040
2188+251355003+251516461+251545635+251511348+251591236+251802759+251975301
2178+251980100+251870529+251777455+251728842+251641704+251475239+251279143
2168+251082837+250875289+250704936+250666147+250758049+250840283+250780446
2158+250615574+250504357+250518822+250569693+250553250+250502974+250589726
2148+250969642+251617678+252413934+253434916+254963509+257149121+259880993
2138+263028713+266592038+270578760+274900147+279467206+284341436+289671915
2128+295465823+301597915+308063465+314960748+322219856+329613839+336951889
2118+344002574+350372160+355709608+359941616+363113083+365027352+365271570
2108+363705047+360686072+356685778+351949015+346578084+340660228+334305597
2098+327697608+321028502+314406714+307936226+301765047+295999928+290702791
2088+285919955+281625850+277759766+274336009+271403157+268955097+266931642
2078+265216340+263691267+262370835+261348505+260595959+259975135+259410034
2068+258918727+258527919+258217000+257924257+257612217+257302979+257039884
2058+256869162+256802583+256727686+256501242+256197538+256068880+256213701
2048+256465046+256640197+256782427+257075345+257533712+257934344+258145902
2038+258324872+258651149+259071254+259404535+259571702+259684617+259940725
2028+260410440+260989183+261567330+262116426+262652633+263245035+263916992
2018+264434760+264444356+263939670+263338179+263014967+262974112+262992639
2008+262917707+262757861+262576002+262416401+262329438+262333150+262318248
1998+262174425+262102329+262527109+263466785+264245283+264197897+263443530
1988+262574373+261966806+261718841+261818483+262108826+262369487+262526777
1978+262634333+262732609+262823862+262894416+263008050+263407613+264241991
1968+265128677+265415185+265024149+264562472+264497977+264740303+265061292
1958+265436549+265855831+266192615+266389201+266533164+266741220+267119962
1948+267802199+268936412+270532880+272122431+272785895+272102397+270809231
1938+269919656+269691374+269796112+269966798+270177726+270473463+270850926
1928+271361199+272268320+273729756+275284021+276339553+277140291+278178085
1918+278923836+278517916+277442052+277025433+277776718+279092841+280073197
1908+280296716+280044653+279882582+280064914+280453147+280893163+281477457
1898+282413367+283607312+284564780+285124522+285907609+287247548+288232719
1888+287868127+286599389+285511460+284963573+284766444+284793202+284953574
1878+285091951+285126904+285178914+285762980+287723743+291287331+294876205
1868+295817702+293444102+289952977+287543583+286661871+286643746+286810212
1858+286881555+286878017+286910904+287076249+287554493+288600254+290363416
1848+292997817+296561527+299941383+300691442+298130222+294811307+293066253
1838+292941797+293323341+293766789+295101090+298141534+301947693+304191357
1828+304150065+303341306+302520255+301045808+299044470+297688122+297485547
1818+297888876+298368871+299153008+300746218+302928381+304571745+304811690
1808+304097495+303617010+304299019+306482583+309636643+312274004+313110396
1798+312651030+312867859+315314553+319532131+322560598+321628452+318160023
1788+315690178+315622513+317034093+318738258+320446905+322016475+323054146
1778+323905003+325956984+330391566+336566668+341305288+341645680+338549023
1768+334705249+331798803+331074276+333041361+336164985+338060272+338687190
1758+339535595+340681488+341843001+344364084+349512792+355797587+359654215
1748+359697679+357966196+356826397+357280299+359174780+361465761+362977122
1738+364354029+367941187+374217051+378900649+377608394+372879405+368523065
1728+365505876+364119268+364510478+366100397+368840481+374173552+383043382
1718+392707472+396939970+393645781+387450191+382647514+380860519+382514845
1708+387210001+393084288+397771248+401601714+407239347+414874255+420304691
1698+421050898+418743492+413854587+407714053+404070052+404676166+408412908
1688+414309434+423200209+434190036+440265601+436793775+430072134+426386525
1678+427280110+431652982+436655958+440125893+443254001+447377471+450147080
1668+448986267+446728664+447562114+451556068+455273724+456401545+456931412
1658+460321459+468723554+482578884+497482426+502606793+499200635+499017989
1648+504422297+509236217+507556814+502714805+500571203+502908764+509633066
1638+520410547+532819694+540447598+540170388+538007243+539713999+546063517
1628+555063879+565024721+575908183+587214971+596877975+604597394+613180419
1618+624463041+635719605+642355544+645310531+648720822+653990080+659731593
1608+664072803+666635810+668568326+670916500+673605520+676147092+678625973
1598+681438695+684666234+688209193+692116325+696384196+700604436+704194677
1588+707077656+709769969+712640970+715461538+717922697+720560163+724925609
1578+732187835+740649678+746137762+748891716+753812843+762811594+772471165
1568+778690816+782895296+788803029+797782938+810563157+829240042+852432834
1558+867044143+866655594+862769336+861720528+862668890+863673428+863866477
1548+863973158+865683557+869790391+875779589+882542381+885751218+878033760
1538+862865300+851208139+845797106+842906842+838716862+833954812+831627862
1528+832250227+834030882+836015444+838950538+842265145+843348066+841660082
1518+839096515+836093546+832425974+829561977+829726797+834311909+843193263
1508+852828318+854543970+844879285+833654802+827774947+827263817+830269798
1498+833600025+833161253+828629376+824802728+825527711+830047400+833713431
1488+832344649+826965418+821563141+818623844+818132677+818824177+820035984
1478+822403701+826797026+832864255+837952163+837965542+832458405+826262430
1468+823346388+823871808+825434339+825752771+825789475+828612354+835470901
1458+842797569+842871678+834921665+826844517+822642980+821518732+821577220
1448+821186010+819605408+817471717+815934894+815494441+816363159+819017226
1438+822946422+825198982+823271228+819297413+816441261+814992416+813841690
1428+813055977+813590153+815120462+816204013+816725650+818037694+819687152
1418+818564234+813972187+809198228+806510679+805282061+804041185+802774321
1408+802661897+803847226+804711601+804075928+803015002+803069428+804275141
1398+805992894+808055628+809874249+810005516+808215894+806268878+805639579
1388+805845166+805269943+803702649+803030062+804846231+808788596+813462808
1378+818269898+823572639+829086150+833111590+834453824+834236679+834373480
1368+835597055+837830212+841034215+844459356+846231886+845421306+843453836
1358+842159444+841952807+842330918+842786852+842907963+842345488+841125766
1348+839894626+839510000+840380120+842465338+845546059+848955649+851591294
1338+853039508+854045168+855128719+855862878+856059079+856576863+858333703
1328+861165759+864108348+866445104+868306663+870441825+873458733+877174638
1318+880774264+883778074+886599483+889848106+893421815+896738033+899699745
1308+902699632+905703442+908153603+910029382+912278020+915524541+918826399
1298+920480901+920008507+918686446+918203895+919119895+920226632+919523994
1288+916404677+912433523+909519093+908080265+907213578+905859156+903621376
1278+900966538+898894419+898360243+899836476+902849532+905830297+907142620
1268+906555559+905366098+905056211+906061380+907753357+909459973+911234745
1258+913371658+915599911+917321027+918405980+919359805+920736641+922387781
1248+923330678+922746069+921072515+919504031+918494308+917488649+916076789
1238+914675296+913844683+913336284+912352689+910750232+909308883+908850357
1228+909424950+910142368+910040660+909253756+908670688+908703890+909267625
1218+910336887+911580565+912192072+911927856+911658877+912414330+914358755
1208+916636321+917884132+917435553+916308993+916434237+918805596+922673291
1198+926525786+929708005+932662782+935614897+938032067+939609727+940798909
1188+942196199+943910521+945542887+946668607+947273740+947676788+948211454
1178+949197501+950992866+953707734+956886030+959823436+962223724+964293672
1168+966174494+967370891+967375724+966753710+966619991+967443809+969074565
1158+971219393+973343978+974847319+975811791+976921119+978366812+979445530
1148+979544366+979330864+980126453+981986262+983569736+984311110+985454901
1138+988522243+993585845+999075540+1002924743+1004141383+1003209132+1001106892
1128+998969909+998175721+999852987+1004227680+1009842969+1013864416+1014788121
1118+1014433055+1015243004+1017411858+1020336095+1023826519+1026450256
1110+1025980033+1022672010+1019047587+1017157449+1017392385+1018534286
1101+1018867357+1018127104+1018202335+1021253216+1027196463+1033411631
1093+1037444706+1039046463+1038652100+1036275978+1033258649+1032926208
1084+1037504736+1044862435+1049670016+1049020543+1045722818+1044239230
1075+1045964899+1049538398+1052693509+1052781067+1048601945+1042470973
1067+1038062447+1036687782+1037201714+1038309292+1039917352+1042786183
1058+1047124241+1051978683+1056408362+1060376574+1063205128+1062739878
1050+1058408964+1053336257+1051272893+1052978459+1056807348+1061690229
1041+1067531138+1072681947+1073741823+1069266123+1061729245+1054762546
1033+1050621669+1050321099+1053693074+1058763190+1062677606+1063896908
1024+1062593901+1059528310+1055842456+1053028052+1051818907+1051698987
1015+1051619064+1050569835+1048091865+1045769259+1046483034+1050681629
1007+1055517719+1058218858+1058524331+1057748354+1057305450+1057812727
998+1058038908+1056017992+1052245701+1049455813+1048836251+1049066004
990+1049088769+1049096404+1048652869+1046520439+1042765869+1038944545
981+1036312542+1035177927+1034824542+1033609863+1030795599+1027789478
973+1025940246+1024844717+1024042893+1023840949+1023981742+1023862033
964+1023089769+1020949774+1017460190+1014266624+1012114581+1009392429
955+1004877153+999683825+995335189+992059809+989712966+988568054+988688184
945+989153574+988426350+986241945+984075753+982665854+981050579+979030294
935+977857783+977920335+978117446+977533677+976181707+974394257+972465032
925+970909367+970515985+971876080+974646985+977233667+977788787+975871821
915+972890075+970763319+970106562+969934177+969358114+968846773+969163664
905+969944544+970282799+969971582+969221523+968068275+966858710+966242369
895+965955528+964751707+962182466+959244990+956996353+955858516+955916794
885+956323765+955270124+952118516+948499556+946312700+945966459+946891145
875+948354349+949660229+950282173+949922834+948857915+947924613+947547832
865+947222466+946715538+947087976+949303131+952463075+954647970+955049547
855+954295355+953123895+951869500+951052476+951354097+952487871+952775903
845+950902226+947746835+945526777+944934532+944123883+941382187+937661660
835+935158544+934630322+935541488+937869488+941744188+945745462+947555327
825+946546025+944780990+944765930+947435688+952145063+957032497+959310554
815+957621309+954341796+953040680+954526439+956584059+956890022+955716951
805+955505341+957996689+962025562+964719275+964917507+963528973+960899352
795+957145342+954435939+955329173+958967255+961597717+961227100+959599707
785+959309013+960799886+962291599+961992570+960100400+958398127+958288083
776+959531341+960427588+959337522+956772344+955681858+958498994+963738482
766+966678620+964562231+959706668+955370711+951904593+949253888+949294936
756+953081797+958064845+960945302+961996002+963661501+966652632+969641172
746+971127002+970436972+967982888+965054448+963187355+963138323+964714372
736+967475470+970481101+972226874+971548472+968919412+966311295+965281399
726+966003020+967690373+969160932+969290519+967914453+966399344+966040075
716+966094291+964982020+962645264+960596470+959998902+960398028+960591427
706+960550380+961770242+964724669+966860741+965022857+959513759+953918014
696+951086098+950098160+948017355+944275814+940720807+937854358+934643631
686+930831553+927252940+924950087+924158069+924160101+924188540+924328143
676+924775460+924202969+920573503+913210550+903021917+894220277+894085297
666+902157821+910417091+913908425+913500473+912481225+911903270+911419948
656+911618250+911875812+909710530+904740021+899890342+898155217+900265722
646+905262008+910951827+912649127+906015850+892967703+881017466+875933411
636+876764725+878273249+878106258+878924823+882132328+884251800+881876728
626+876347107+870529033+865283170+860158908+854361779+847917348+842635201
616+840986023+844425173+851953155+860048025+865794861+869204171+869942462
606+865264958+854556228+842810528+837335192+841637036
##END=
