##TITLE=<SNM>
##JCAMP-DX=4.24
##DATA TYPE=INFRARED SPECTRUM
##DATE=2/5/2025
##SAMPLING PROCEDURE=Instrument type and / or accessory
##ORIGIN=Admin
##XUNITS=1/CM
##YUNITS=ABSORBANCE
##RESOLUTION=4
##FIRSTX=4497.3318
##LASTX=599.83466
##DELTAX=-1.4281778
##MAXY=1.7346985
##MINY=0.18931389
##XFACTOR=1
##YFACTOR=1.6155639e-09
##NPOINTS=2730
##FIRSTY=0.21021305
##XYDATA=(X++(Y..Y))
4497+130117447+128991201+128348729+128352059+128778028+129233097+129323782
4487+128980456+128716830+129176538+130324763+131405278+131639528+130761561
4477+129185550+127885045+127678466+128427000+129297007+129821224+130169449
4467+130367570+129991638+128897131+127697918+127191197+127602501+128520388
4457+129345375+129726398+129635445+129162076+128527545+128239449+128738247
4447+129762877+130428445+130084122+128948487+127813277+127188394+126919584
4437+126766713+126937514+127553598+128041623+127760647+126956837+126499056
4427+126861116+127652317+127974688+127310374+126225192+125824154+126362272
4417+126982737+126940032+126346740+125627721+125086117+125019579+125489332
4407+126008108+126007241+125504274+124975601+124761330+124816136+124857835
4397+124580291+123848599+122868676+122099500+121828892+121905059+122020759
4387+122092306+122179579+122244641+122160726+121785108+121014853+119950562
4377+119002303+118679046+119119349+119827622+120131296+119955072+119799278
4367+119945553+120149006+120129719+119859756+119318005+118453338+117547175
4357+117181306+117574984+118321276+119023535+119751168+120595257+121290829
4347+121541183+121277797+120578895+119734630+119229782+119339855+119881625
4337+120380386+120341528+119591795+118516694+117715790+117427389+117501030
4327+117684384+117717330+117474955+117212952+117406627+118168987+119019265
4317+119471170+119683108+120124056+120733684+120979121+120723289+120415390
4307+120371486+120449553+120489630+120560604+120669045+120644345+120452763
4297+120257179+120060783+119735710+119526853+119936348+120857491+121441578
4287+121150005+120391999+119813491+119532995+119395584+119427811+119587165
4277+119478641+118843271+118099460+118019796+118940939+120398990+121535815
4267+121867640+121570145+121028098+120421864+119870041+119633550+119897167
4257+120485239+121042256+121471813+121971386+122627832+123227636+123496059
4247+123326033+122827069+122357601+122336812+122799417+123351102+123712064
4237+123994838+124325999+124540870+124427550+124011994+123450172+122900663
4227+122708196+123320323+124562259+125387283+124997765+123879692+123084045
4217+122959435+123301516+124148557+125499035+126643128+126720236+125753954
4207+124541017+123823659+123912260+124677626+125630654+126310362+126646568
4197+126714822+126366985+125508212+124547234+124153648+124595851+125519613
4187+126351582+126768254+126782375+126580177+126414578+126532999+127038355
4177+127831908+128713934+129507432+130129124+130583935+130848169+130819807
4167+130531536+130273324+130242997+130210613+129839764+129228642+128831819
4157+128910200+129305953+129730705+130096906+130520237+131014497+131270652
4147+130933358+130090855+129242376+128795958+128823278+129173817+129555523
4137+129638719+129351859+128996459+128897472+129075255+129381807+129761032
4127+130179023+130409776+130129197+129279510+128244946+127601680+127688307
4117+128393103+129321790+130115989+130594376+130688123+130376443+129720661
4107+128956770+128524889+128833369+129823586+130895255+131463571+131459863
4097+131125327+130633262+130211886+130274551+130977926+131857258+132323451
4087+132389362+132499112+132802344+133046592+133061497+132934065+132801210
4077+132827395+133217909+133910106+134489111+134699518+134715115+134710042
4067+134581752+134202454+133564879+132706982+131791669+131141615+130986485
4057+131286443+131813963+132274852+132445680+132349664+132250299+132380387
4047+132679081+132803442+132447258+131737417+131244439+131456072+132252633
4037+133005639+133213463+132927369+132574007+132541919+132911209+133374257
4027+133500471+133265724+133096611+133238902+133490307+133712206+134057073
4017+134508194+134706730+134438649+133964589+133738060+133935443+134300112
4007+134414235+134126415+133703250+133565958+133868581+134314584+134490227
3997+134404725+134455298+134797831+135122028+135182977+135161256+135373747
3987+135940144+136732876+137389073+137452466+136768156+135787578+135366110
3977+136058896+137478790+138537667+138521627+137698845+136764513+136147875
3967+136059754+136728587+138147983+139723957+140608657+140532167+139996613
3957+139564926+139338276+139287888+139740799+141102281+143015872+144216182
3947+143892612+142909599+142665434+143196616+143367122+142638271+141668623
3937+141406140+142478077+144967575+148009524+149885133+149475415+147693951
3927+146556610+146990769+148066414+148527995+148664420+149710135+151761553
3917+153113664+152039992+148903226+145619972+143629069+143283889+144803738
3907+148830582+155461654+162969679+168338608+169657440+166988268+161409376
3897+155102177+151070464+151172872+154438260+157198643+156881687+155948231
3887+157846281+161516977+163385567+163606359+164604232+164957381+162137830
3878+158685343+158620299+161925136+166299660+170710340+174038143+174051573
3868+171721752+170612939+171074299+170045140+166162469+161889515+160307702
3858+163269443+171803675+184478523+192601295+187489278+175571366+165882148
3848+161376116+161920598+165979991+171466593+177194297+183059598+187902288
3838+188907908+185448043+180531933+176551050+173527880+171071698+169574613
3828+169248008+170039569+173123725+179873246+187753808+190582546+187820513
3818+184797656+182518658+178067136+171956011+167926022+168287749+172772420
3808+178517796+182296648+185062168+189508451+193736911+193337810+189722565
3798+187166935+185582466+183088670+180396624+179410687+180466944+182996324
3788+186952046+192133349+197252597+201573643+206380104+212590050+218501984
3778+222485819+226142735+232186179+241927140+255211385+270000002+282863083
3768+292550973+300517129+307386224+313270506+319860479+328636127+338570985
3758+347823784+357164390+369747132+388251917+411610074+432655602+445702545
3748+455677027+468694713+482904223+490917862+492994958+497269241+508504355
3738+525887599+544058973+556063512+559385191+557689763+555763564+555648786
3728+557022498+558548804+558695310+556951293+554158379+550954797+547179359
3718+543340905+541609210+544249973+550589510+555647716+554754807+549984632
3708+545953850+544453333+546095966+550629798+555227862+556902224+556536715
3698+556653595+558481288+563092745+571882892+584412507+596203651+600160202
3688+594507153+585445392+578723117+576818095+580092881+586979224+595803683
3678+605698400+612626212+610439724+602241505+596094002+592460642+586608587
3668+577893371+569574397+563518686+560208407+559627622+561347215+564946817
3658+569524553+573102904+575392916+579738846+588730620+599564585+603938888
3648+597084385+584767649+574597591+569666447+569191031+570198053+570173851
3638+569280683+569379375+571738563+576859600+585366144+596444052+604527089
3628+603507080+597433181+594488227+597837650+606461959+616751147+623819266
3618+625552916+624905648+625327568+626955848+628386229+629857563+632496223
3608+635344663+635946478+634303071+633330618+634970410+637722408+639052216
3598+639373194+640982880+644038517+646911159+650258627+656744891+665966846
3588+672509188+672367884+668356693+664853753+663544311+664134172+665560495
3578+666658682+666553461+665318175+664671866+667176158+673663454+681544460
3568+686109356+684716607+679265885+673035149+667788377+664358635+663124383
3558+663600611+664878546+666261260+666894066+666280740+665733823+667190399
3548+670396194+672727896+671906783+668160638+663252848+658887843+656318027
3538+655728903+655774873+654913176+653278771+652173500+651843963+651082618
3528+649176599+647076665+646310967+647572226+650400521+653456896+654685688
3518+652081782+645920702+639694836+637241089+639459157+644063900+647640111
3508+648288044+646760926+644616203+642090808+639037975+636788326+636963646
3498+639260889+641667412+642622303+642423223+642501733+643546498+644780529
3488+645205032+644463536+642706274+640898467+640528567+641793442+643293110
3478+644224020+644937550+645031261+643336571+640057357+637014560+635910100
3468+636905058+638484934+638915413+637935434+636745971+636386550+636642225
3458+636594337+635668297+633911551+631919422+630790170+631214599+632388345
3448+632832770+632230143+631251714+630186141+629237227+628885922+628800033
3438+627880339+625840690+623545070+621765893+620709543+620505888+621367954
3428+623287771+625546275+626495854+624702731+620835057+617450215+616571289
3418+618155297+620863760+623432027+624871041+624344563+621939664+618964161
3408+616766311+615420638+613951998+611993885+610693814+611732970+615245539
3398+618893804+619855668+617675638+614252537+611362554+609302872+607848510
3388+607249499+607740410+609007351+610521002+611937216+613216553+614677777
3378+616601099+618167361+617461947+613715138+608766286+605325734+604588259
3368+605831661+607461233+608103042+607471785+606708337+607041527+608060060
3358+608206972+606988178+605656157+605573440+606764637+607943106+607501374
3348+604972326+601853933+600374261+601343689+603726194+606062950+607569517
3338+607970998+607366637+606743608+607521850+609634844+610893189+609546520
3328+606718926+604994241+605497475+607046655+607773246+606856356+604895845
3318+603272803+602957175+603772754+604884186+605606276+605502013+604308861
3308+602304667+600388650+599400185+599605943+600796218+602239217+602935629
3298+602828673+603299625+605738393+609907934+613878284+615347920+613412681
3288+609675280+607074916+607194748+609144966+610967752+611634463+611618046
3278+611692092+611638891+610720193+609037309+607508015+606785335+606869232
3268+607413308+608063159+608615979+608900506+608750901+608481095+608775915
3258+609483099+609503280+608454494+607233044+606559949+606291693+606346628
3248+607044073+608226563+608980640+608585394+607168110+605269876+603471145
3238+602538538+602888072+603752351+604081372+604243817+605260653+606671701
3228+606967591+605751712+603877016+602103779+600763161+599828857+598797448
3218+597474539+596629924+596748354+596910835+596106988+594805257+593985398
3208+593496810+592623824+591458379+590494707+589520594+588087889+586671712
3198+586308675+587183617+588220966+588195693+587048954+585848607+585537258
3188+586106754+586957161+587582847+587745328+587272974+585970800+583924215
3178+581719539+579909039+578434458+577065764+576010927+575503561+575332852
3168+575265742+575335767+575413133+575046702+573970356+572577644+571694696
3158+571637400+571771288+571381355+570514567+569643610+568880199+567933683
3148+566468511+564302942+561763970+559643043+558520469+558337512+558431776
3138+557918728+556563869+555208235+554772184+555161379+555579684+555417608
3128+554557129+553279268+552002071+550891856+549745485+548324844+546767990
3118+545591772+545189996+545385977+545650544+545602287+545073485+544147334
3108+543289770+542712231+541810615+540245349+538943986+538746603+539050868
3098+539114031+539415972+540378020+541035508+540339060+538765419+537569241
3088+537329984+537777434+538280447+538182346+537163038+535517270+533822801
3078+532377700+531302091+530951414+531517553+532308081+532269895+531247230
3068+529955054+528899627+528049404+527245852+526378437+525453135+524716915
3058+524394978+524202502+523466798+521896699+520081292+519096849+519454352
3048+520485540+521066289+520726421+519606060+517855697+515796605+514209646
3038+513696266+514002043+514481666+514744536+514471594+513436089+512153948
3028+511580283+511693917+511312064+509752443+507704013+506061012+504944156
3018+504237230+504194470+504907852+505604670+505145819+503280937+501015164
3008+499577109+499241595+499295424+498980312+498220147+497387929+496656247
2998+495913902+495211735+494829034+494737610+494407852+493475392+492248518
2988+491168409+490145301+488883157+487512101+486446602+485873453+485639693
2978+485444302+485093920+484686167+484393966+484107005+483594657+482934882
2968+482433234+482170585+481854662+481088705+479731411+478014253+476347455
2958+475151978+474808937+475310954+475890153+475600904+474467631+473507058
2948+473431130+473798115+473724142+473056803+472331873+471823104+471291277
2938+470534285+469597473+468589011+467631427+466729922+465622400+464125905
2928+462535220+461334541+460672072+460289886+459795359+458981772+457997071
2918+457170682+456681578+456431436+456167054+455742182+455351548+455345903
2908+455731077+456066481+455873008+454970618+453491020+451769803+450272423
2898+449447583+449385158+449610322+449503145+448915313+448047307+446914735
2888+445439122+443889093+442763235+442290623+442247346+442190493+441863095
2878+441384838+440975905+440697576+440605968+440791693+441001325+440607038
2868+439339692+437758377+436629789+436123234+435914857+435769347+435598048
2858+435176017+434305429+433160608+432113334+431377667+430990871+430797435
2848+430339802+429225971+427707819+426460728+425790880+425423563+425039570
2838+424659267+424352419+423867632+422908092+421664100+420637155+419951811
2828+419308416+418588872+417953078+417366278+416657175+416038131+415908301
2818+416096202+415930511+415193479+414384983+413835595+413182460+412013251
2808+410520778+409215541+408368934+407922738+407631496+407195262+406486048
2798+405654051+404908238+404303730+403756702+403121977+402334844+401563795
2788+401009426+400535965+399835126+398935060+398166668+397651259+397121165
2778+396228072+394901215+393470428+392418580+391936633+391780277+391551460
2768+391003547+390146425+389216659+388444983+387785466+387050242+386244882
2758+385476970+384654935+383650680+382669704+382060732+381776353+381380332
2748+380629318+379749543+379091833+378754327+378555985+378191472+377432451
2738+376351419+375332185+374692849+374313062+373774040+372853387+371748927
2728+370828717+370304268+370156213+370206352+370202957+369939054+369333993
2718+368429019+367385398+366429290+365630460+364800087+363806568+362864995
2708+362263881+361918110+361435241+360574504+359495317+358591450+358147394
2698+358091463+358033502+357610734+356849831+356109516+355610192+355171670
2688+354538458+353780729+353130176+352562857+351854972+350987446+350193560
2678+349613992+349151747+348678839+348175162+347666910+347215881+346943714
2668+346882617+346813552+346437786+345755652+345084735+344597586+344066312
2658+343253020+342318311+341588842+341146667+340892947+340767544+340666602
2648+340374217+339789041+339074957+338472810+338052809+337703717+337319429
2638+336913853+336506211+336023933+335459602+334971642+334642252+334306369
2628+333790738+333166417+332638390+332291881+331999828+331537657+330838036
2618+330116241+329623485+329337445+329059596+328722754+328399784+328080318
2608+327656591+327133065+326683216+326425253+326231264+325857122+325241102
2598+324580404+324116683+323931549+323944794+324030868+324100413+324071894
2588+323802863+323138365+322103893+321010170+320262992+320043990+320187028
2578+320324864+320151499+319651437+319103450+318749120+318483889+318027067
2568+317318924+316537250+315823904+315240720+314907088+314947450+315317091
2558+315773101+316015901+315904038+315587081+315348377+315271010+315148817
2548+314767112+314173303+313587389+313107545+312659910+312241679+311994121
2538+311922694+311777147+311408207+311056311+311035872+311249525+311281181
2528+310940206+310459846+310138868+310035786+310055192+310104114+310091275
2518+309945949+309707614+309494809+309365809+309298644+309277540+309275529
2508+309190175+308967723+308736748+308618262+308486219+308146148+307644279
2498+307181923+306846944+306594939+306373095+306159756+305947246+305706052
2488+305390313+305038547+304774681+304636033+304563204+304593051+304805210
2478+305037606+304928584+304319371+303443526+302678658+302212944+301966898
2468+301795821+301705467+301780768+301934450+301911446+301600393+301158735
2458+300757217+300395729+300041584+299744679+299546780+299446465+299445948
2448+299503337+299535232+299557793+299653403+299761872+299735179+299572052
2438+299338882+298973391+298468958+298079652+298005753+298051871+297907892
2428+297595437+297353154+297242564+297141105+297034961+297073460+297323030
2418+297648361+297909220+298137539+298398250+298590302+298546693+298278160
2408+297973563+297769521+297634157+297506706+297440039+297506799+297646885
2398+297751037+297809274+297820601+297693058+297413715+297177852+297177630
2388+297361750+297510654+297473354+297226183+296722579+295832142+294530927
2378+293045814+291688612+290653052+290067470+290023271+290362456+290639309
2368+290519588+290103258+289692848+289396073+289207674+289384673+290355871
2358+292217654+294649283+297453063+300966830+305566297+310738248+315212349
2348+318028137+319248333+319832993+320541948+320925203+320105271+318040534
2338+315321998+312304584+308979676+305455652+302142753+299432722+297392077
2328+295813271+294413678+292989864+291573632+290440211+289826497+289672243
2318+289710908+289712956+289572168+289296090+289026155+288965317+289160265
2308+289433170+289615777+289724891+289833156+289929192+289972062+289943765
2298+289826903+289645735+289516126+289551157+289725186+289893995+289951217
2288+289928712+289925410+289978021+290040907+290056181+290004548+289907793
2278+289800616+289699655+289592866+289436453+289185039+288888577+288700086
2268+288680181+288681178+288551255+288354075+288263537+288333931+288475124
2258+288597539+288699256+288814789+288932666+289001602+288988320+288900586
2248+288786694+288722720+288761145+288897819+289111417+289397549+289747913
2238+290142882+290570373+291026401+291501578+291973471+292404430+292780915
2228+293179924+293725217+294428731+295170559+295899455+296725900+297733143
2218+298841883+299942689+301029864+302169502+303451569+304956236+306658305
2208+308408040+310065633+311610238+313124516+314724315+316477519+318362618
2198+320310660+322282054+324307056+326442150+328646679+330730342+332487604
2188+333869322+335005215+336102480+337285856+338485096+339520490+340305816
2178+340916264+341460008+341900523+342050829+341806517+341288598+340660699
2168+339975725+339277026+338601755+337814067+336664597+335059080+333143986
2158+331119316+329025543+326768478+324320080+321735986+319044051+316324851
2148+313696374+311147255+308944609+308161478+309871718+313794364+318573910
2138+323300698+327971629+332743501+337555182+342292005+346891767+351418220
2128+356012300+360661389+365264103+369947392+374991838+380491666+386299227
2118+392175116+397977070+403839050+410021196+416604897+423714300+431919456
2108+442006650+454697122+470913814+491552882+516338800+543375475+570170715
2098+594699187+615725125+632962047+646728681+657309148+665183069+671002805
2088+674515411+674624175+670578377+661936838+648316673+630118182+608399817
2078+584232095+558874246+533575870+509100636+486147428+465485044+447293489
2068+431303547+417429994+405483748+394925086+385522645+377507567+370937886
2058+365594968+361251472+357611840+354451499+351876223+349991455+348613980
2048+347649718+347336598+348020318+350018904+353595705+359028681+367000298
2038+378707840+395200942+416732956+442703098+471816205+502364452+532668535
2028+561105338+586021049+606522281+623122634+636927121+648579654+658151143
2018+665521387+670719090+673831839+674650001+672776448+667942447+659993261
2008+649052193+635828343+621221706+605628855+588976260+571247393+552674723
1998+533647149+514793826+496858574+480060395+463937008+448221189+433349727
1988+419783943+407560402+396701680+387365649+379452620+372526358+366170736
1978+360241203+354852094+350157146+346100464+342551296+339652201+337570936
1968+335835257+333536575+330476364+327452124+325134811+323381570+321848550
1958+320580355+319679624+318943515+318118565+317183117+316284747+315611579
1948+315369444+315808040+317024435+318396782+318572287+316881914+314371018
1938+312558857+311879823+311755195+311540619+311117851+310795508+310802813
1928+311114309+311838575+313135105+314544604+315370882+315848881+316565105
1918+316900841+315754912+313629153+312187408+312221757+313147022+313883537
1908+313829340+313223835+312698649+312532220+312506874+312425412+312491968
1898+313036303+313919029+314577218+315001352+315998081+317718560+318797636
1888+318119708+316531495+315469574+315217034+315277209+315287133+315144095
1878+314940883+314942137+315416483+316792557+319815247+324587746+329111728
1868+330142030+327029392+322622808+319612735+318496913+318475477+318733145
1858+318893745+318966979+319089394+319269141+319569274+320361721+322124997
1848+325243943+329687569+333855044+334624727+331244128+326961434+324640283
1838+324321076+324639324+325041838+326588583+330384756+335240009+338009052
1828+337662876+336331407+335184114+333360295+330854601+329091989+328718511
1818+329002927+329251888+329832305+331531680+334191038+336368191+336778157
1808+335797846+334935153+335475466+337897005+341576630+344742690+345742998
1798+345008438+344966379+347750660+352923902+356618174+355030661+349940024
1788+346098545+345537793+347129291+349184656+351113402+352578832+353059303
1778+353226765+355146029+360351221+367864430+373556956+373678485+369471829
1768+364377097+360577788+359660824+362228278+366230209+368443703+368692922
1758+368934725+369398373+369844680+372061494+377742029+385120759+389681339
1748+389465324+386894844+384956322+384987239+386843303+389116934+390200733
1738+391072280+395059380+402963923+409131497+407475398+401206108+395473257
1728+391632848+390009769+390744993+393134619+397070547+404193970+415604036
1718+428021013+433838831+430345926+423129973+417489099+415511026+417858334
1708+424217904+432370744+439079294+444351892+451759362+462333852+470863749
1698+473047617+470605675+465016158+458434597+455218545+457192966+462777539
1688+470690200+482229394+496857983+506009950+503202057+496005178+492491724
1678+494663306+501057519+508070666+513128946+517902221+524114362+528649043
1668+527930273+525557324+527263266+533446077+539376458+541254216+541349587
1658+544434997+553594454+569469101+586213378+589968082+583115719+580523508
1648+584400332+586804936+581184686+572319754+567089289+567281950+572678881
1638+582579501+593192140+596348534+589875884+582312204+579909629+582570204
1628+587272716+591817985+596233609+599895193+600803818+600052472+601810361
1618+607464222+612574449+612081065+608574584+607233671+609139764+612179536
1608+614136284+614804730+615366330+616525098+617902241+618854254+619388221
1598+620132669+621546669+623345990+624850676+625808518+626546620+627359395
1588+628119191+628546866+628646258+628777527+629581743+632112304+637571733
1578+645759623+652735322+653292865+649942224+649681088+654223922+659213174
1568+660174928+658630839+658430800+661845194+671197606+689121015+711748707
1558+721767499+715089461+707755299+706636893+710611043+717516201+725516374
1548+733833467+743612005+756205704+771012012+785723354+795005078+790905267
1538+777751590+768846702+768085209+770775521+770735749+768118931+767869675
1528+771964911+778331859+784970200+792265992+799448224+802985180+802265230
1518+800244692+797370353+792890755+789002790+789323251+796114407+809837285
1508+826790898+833983756+822479537+806000307+796853689+796026378+800717600
1498+806553643+808481651+805698440+803421267+806122057+812655029+817006826
1488+814699621+808261394+802576542+799853468+799877228+801637294+804751002
1478+809714649+816759488+824892627+831334692+831871721+825729974+818432337
1468+815249859+816770040+819671312+820346029+819774984+822201577+829958176
1458+840048764+843653678+837326206+828639879+823294599+821938080+823155657
1448+824441634+823570124+820714010+817913902+816915550+818711108+823812960
1438+831051493+836020896+835035826+831157895+829078991+829028742+828368191
1428+826063496+823806024+823023724+823646347+825551259+828818593+831714995
1418+830787922+825594499+819475700+814991601+812498893+811251506+810712116
1408+811156098+812630531+813939973+814238003+814800637+817073309+820456933
1398+823525187+825698171+826205169+824055280+820743673+819421096+820821889
1388+822219065+820598163+816892233+815082581+817473830+822967497+829128872
1378+834851503+840400732+845453073+848786890+850314081+851500446+853255125
1368+855404718+858041534+861377343+864182838+864239434+861075698+856725081
1358+853372153+851735756+851285796+851111435+850661771+849812028+848565305
1348+847071688+845779511+845383417+846596862+849624163+853560386+856569389
1338+857270006+856003434+854289486+853384771+853638528+854789105+856524894
1328+858667182+860904436+862677046+863736937+864691902+866415443+868988284
1318+871717777+874062835+876118053+878288012+880735930+883120612+884992098
1308+886381895+887581541+888584837+889274608+889679704+889656240+889018342
1298+888140928+887700119+887859427+888240100+888398522+887860755+886102017
1288+883112274+879686148+876648811+874024096+871271434+868064974+864608595
1278+861504997+859452951+858734551+859011182+859833550+861047142+862479958
1268+863689418+864335137+864596789+865077297+866283067+868037452+869531881
1258+870298760+870737282+871217937+871228268+870122185+868361086+867187856
1248+867250650+868219634+869435145+870238622+870114363+869297235+868799461
1238+869293250+870598708+872600578+875740701+880094564+884687648+888255669
1228+890374271+891424053+891693970+891210658+890363941+889949621+890461562
1218+891782294+893520593+895431924+897573770+900078652+902773687+905302624
1208+907575074+909671023+911620725+913765300+916816509+921024936+925627244
1198+929477061+932152172+934230707+936400445+938583390+940295715+941496025
1188+942547726+943792604+945490540+947684406+950180508+952968737+956040385
1178+958746340+960395945+961348696+962389034+963418156+964041812+964901959
1168+967113092+970722729+974469464+977267359+979359397+981463979+983379738
1158+984230367+984005166+983812653+984246674+984657378+984571563+984874610
1148+986873676+990698331+994922253+997638834+998137124+997624076+997709006
1138+998587379+999702980+1001182873+1003347888+1005754632+1007842686+1009714836
1128+1011323784+1012021229+1011922279+1012618543+1015541287+1020113784
1120+1024216694+1026269773+1026422071+1026445388+1028193796+1031439289
1111+1034270093+1035823848+1036759111+1037268027+1037316801+1038107292
1103+1040332813+1042069341+1041108916+1038019854+1035054608+1033691742
1094+1034215933+1036271520+1039206660+1042701926+1047023691+1051846477
1085+1055417007+1056188977+1054810912+1052919429+1051040195+1049535436
1077+1049804393+1052732377+1057291518+1061427411+1063727089+1063868024
1068+1063032965+1063753948+1067152404+1070789564+1071045756+1067806092
1060+1064775543+1064670396+1066123061+1065957185+1064120084+1063601723
1051+1065811896+1069022709+1070750530+1069983429+1067546579+1065595255
1043+1066296684+1069761401+1073291126+1073741823+1071281877+1069003008
1034+1068457419+1067821366+1065232587+1061988569+1060874149+1062699812
1025+1065944494+1068938148+1071052839+1071842224+1070643168+1067748980
1017+1064705297+1063179361+1063713365+1064899655+1064052716+1059973344
1008+1054740149+1051975016+1053556146+1057959595+1061525771+1061469249
1000+1058222280+1054804345+1054098046+1056722834+1060424410+1061911239
991+1060335201+1057955315+1056656646+1055681094+1053668304+1051111549
983+1049086141+1046968276+1043687513+1040187599+1038159313+1036946238
974+1033701851+1027483291+1021210717+1017691913+1016361294+1015225032
965+1013826453+1012669752+1011361121+1008851738+1004438180+998307575+992142658
955+988348551+987602849+987866936+986537866+983089604+978746219+974537644
945+971167892+969463683+969582777+970458494+970913914+970759844+970114273
935+968744029+966742012+964755712+963240179+962402242+962675774+964253067
925+966396241+967874142+967809503+966175467+964056127+962944953+963131711
915+963329315+962453008+961105934+960585064+961078042+961624147+961382270
905+960166686+958298078+956801287+956796344+957651694+956935582+953576676
895+949878272+948990750+951367831+954382515+955154707+953380769+950886438
885+948976361+947411022+945764515+944377964+943698672+943794375+944560664
875+945585284+946152641+945798679+944676732+943783159+944523917+947125610
865+949741174+950001203+947289271+943146368+940107113+940105121+942917921
855+946120174+947559409+947396485+946854291+946245318+945182033+944000465
845+943788177+944952626+946654547+947889685+948493640+948694786+948390558
835+947516539+946639346+946452368+946971466+947780257+948671690+949319476
825+948477628+944895883+939944410+937441815+939668812+945056741+950404971
815+953880831+955232849+955004401+954551638+955270850+957227635+959202424
805+959964580+959573061+959346089+959749931+959268169+957134735+955485499
795+956149222+957641290+957932532+957598788+957982412+959192389+961211156
785+964213000+967248419+968802026+968680792+967556336+965382762+962153355
776+959228250+957995178+957813807+956745135+954090905+951072384+949118182
766+948464420+948540864+949015100+950139851+952181861+954690581+957208745
756+959957497+962375752+962726909+960724228+958527854+957956144+958812675
746+960201957+961689745+963293528+965278500+967674176+969305334+968410212
736+965006517+961451262+960262979+961815996+963897188+963984700+962786161
726+963307326+965647440+966528543+964870083+963515335+964255724+965002975
716+963191995+959799886+958204219+960116141+963669552+965638216+964569471
706+960469660+953676954+946626212+943687604+946709371+953018691+958346704
696+959657548+955401159+946651743+937903212+933435346+933699286+935698351
686+936161519+933959094+929854634+925297928+921416382+918410700+915848041
676+913500253+911413306+908679460+903455857+895901733+890610245+891370262
666+893677761+893109520+891337426+890745277+890684550+890049604+889663471
656+889696823+888500129+885458955+881814564+879025449+878937273+883002772
646+889500621+894231467+894992590+892949916+889828461+886143929+881936019
636+877590641+873957613+872703955+873911939+874776808+873359045+871320650
626+871653139+874275418+874851408+869433226+859083568+848902369+843996202
616+846135317+852832098+858780890+859905051+856803370+852245483+847666714
606+843769304+841805362+842278712+843899171+844557582
##END=
