##TITLE=<SNM>
##JCAMP-DX=4.24
##DATA TYPE=INFRARED SPECTRUM
##DATE=2/5/2025
##SAMPLING PROCEDURE=Instrument type and / or accessory
##ORIGIN=Admin
##XUNITS=1/CM
##YUNITS=ABSORBANCE
##RESOLUTION=4
##FIRSTX=4497.3318
##LASTX=599.83466
##DELTAX=-1.4281778
##MAXY=1.7636178
##MINY=0.19099738
##XFACTOR=1
##YFACTOR=1.642497e-09
##NPOINTS=2730
##FIRSTY=0.21241258
##XYDATA=(X++(Y..Y))
4497+129322962+128811749+128169088+127418078+126976476+126991355+126991808
4487+126547440+126005236+126182635+127250295+128295864+128378032+127691488
4477+127118203+127020649+127149811+127366329+127738165+128107569+128060575
4467+127345001+126306209+125868027+126704363+128326184+129488050+129648810
4457+129422321+129416352+129353862+128669469+127483643+126531799+126273430
4447+126468883+126734111+127073912+127535890+127812567+127692250+127522998
4437+127754078+128306107+128665804+128374729+127409395+126236007+125375068
4427+124940253+124766918+124754915+124790034+124593874+124046227+123452983
4417+123176814+123205065+123337556+123630019+124297156+125149677+125513030
4407+124922380+123679626+122511209+121873992+121784694+122065217+122492929
4397+122853116+123063810+123172568+123137540+122875089+122610551+122726839
4387+123090065+123019310+122167489+121034644+120371671+120336715+120422639
4377+120184610+119783108+119560103+119379882+118862319+118044700+117361068
4367+117161261+117507477+118180983+118746720+118853646+118520449+118000690
4357+117546015+117465789+118069303+119201050+120127491+120323025+120109292
4347+120046603+120058732+119739951+119181581+118861085+118913296+119017318
4337+118901801+118595857+118215585+117766662+117275626+117003522+117304358
4327+118166567+118969462+118900341+117820234+116604632+116303288+116951909
4317+117554670+117311842+116543767+116284763+117171467+118844755+120365556
4307+121131582+121269144+121174067+120983205+120619008+120128108+119719602
4297+119507747+119445965+119504027+119681907+119860367+119867317+119732566
4287+119671891+119771604+119872896+119829494+119665595+119397510+119001941
4277+118692205+118857257+119542911+120321039+120814034+121029682+121084515
4267+120965423+120714929+120503464+120319923+119938824+119424345+119249659
4257+119646861+120313935+120935947+121432091+121679201+121667416+121779649
4247+122250436+122678239+122703124+122682847+123094964+123740419+124052278
4237+123838935+123357551+122913092+122631371+122441280+122180798+121848780
4227+121735567+122153907+123035368+123940889+124513221+124775074+124910831
4217+124896697+124592232+124137448+123956956+124278803+124798245+124928577
4207+124469176+123940381+123961338+124387707+124552795+124324092+124317487
4197+124999540+126052122+126735617+126689094+126327020+126375557+126970289
4187+127445458+127156189+126231308+125293091+124745870+124653733+125061603
4177+126047549+127532960+129248823+130779014+131646114+131690151+131316092
4167+131015102+130821455+130543934+130169894+129758276+129339619+129101680
4157+129291835+129831743+130302467+130382321+130181969+130065390+130149481
4147+130158163+129829993+129264165+128807930+128739779+129022598+129365039
4137+129648429+130054976+130588588+130909301+130859685+130666310+130484320
4127+130209739+129738481+129052092+128245640+127703264+127859343+128591148
4117+129250311+129437572+129387711+129519268+129928998+130458718+130990997
4107+131425241+131543616+131277889+131008407+131111631+131288123+130960659
4097+130266196+129926939+130171291+130562559+130862969+131291588+131949010
4087+132635371+133226311+133748120+134097375+134054799+133653188+133300604
4077+133404527+133942984+134482992+134574504+134076645+133223000+132484228
4067+132256777+132564771+133100298+133551760+133781216+133724396+133357106
4057+132823403+132418191+132375025+132697689+133115630+133224615+132899020
4047+132559591+132718119+133249291+133476914+133028872+132265250+131804098
4037+131831760+131970166+131844733+131644091+131836114+132425367+132904518
4027+132931590+132711533+132683373+133016415+133433531+133518719+133216894
4017+132902486+132846265+132843117+132564590+132066731+131723709+131761450
4007+132064136+132463080+133029180+133907157+134904371+135474835+135279554
3997+134609459+134045119+133867067+134028163+134432024+134869407+134997217
3987+134790151+134688079+134974264+135330559+135272768+134834134+134616980
3977+135168510+136383866+137606381+138252407+138191006+137671048+137148612
3967+137052501+137488105+138201766+138813390+139033946+138823197+138432827
3957+138174921+138141571+138270670+138695796+139781210+141484554+142917781
3947+143296493+143122805+143301646+143501862+142707304+141036466+139666500
3937+139483286+140857679+143840620+147533656+149859820+149420097+147448949
3927+146426160+147198328+148421713+148750691+148688347+149418400+150833011
3917+151445007+149971119+146803612+143650702+141953536+142085428+144055651
3907+148341224+155157449+162882007+168354413+169671651+167169612+161931851
3897+155804265+151628022+151487928+154786902+158056889+158426166+157693055
3887+158999533+161656327+162871883+163151780+164509734+165125650+162434491
3878+159009622+158914925+162353330+167031242+171368182+173942889+173173562
3868+170700354+169879569+170649296+169851009+166253550+162506107+161656218
3858+165191877+173708934+185662417+192786029+186885649+174485646+164773592
3848+160854702+162406947+167399558+173395433+179220042+184718630+188491076
3838+188083114+183927184+179425275+176280992+173628082+170921482+169197498
3828+169148073+170421655+173691642+180414605+188513720+191970687+189961653
3818+187413219+184907569+179516215+172603715+168620103+169730149+175087282
3808+181272369+184806196+186944455+191005761+195488456+195798655+192733065
3798+190154475+187915949+184523196+181444651+181082940+183567451+187451068
3788+191797461+196337892+200676918+205122725+211157901+219018507+226087685
3778+230344063+233904200+240305587+251294871+266548861+283337533+297350565
3768+306830279+313374391+318418568+323126999+329212236+336830213+343846119
3758+349267702+355700805+366891475+384685698+406660310+425334289+436501335
3748+445688232+458439984+472692288+481084238+483201196+486385269+495258992
3738+510067425+527972584+543554373+551635109+552172803+550189571+550467944
3728+554189712+559162980+562451275+563204454+561603128+557086666+550398886
3718+544604288+542521224+544917136+550200566+554181402+552637666+546431478
3708+540160041+537415973+539551801+545175877+550251734+551706562+550801440
3698+550241936+551105760+554012041+560516199+571452591+583399307+588928450
3688+585391829+578800868+574457614+573500164+575940348+581807089+590910304
3678+601424945+606883362+601408760+592011023+588414198+589616055+587436463
3668+578617754+567850468+559269307+553674226+550568029+550383028+553869860
3658+558930767+561157680+560596107+563023227+572293662+585247072+591565974
3648+584973453+572583720+563050371+559038581+559306721+561376430+563793063
3638+566799465+570745826+574994402+579432406+585555711+593126040+596225342
3628+589979018+581173772+578487549+583439551+592917342+602184185+607342890
3618+608702132+610160625+613852309+618071128+620357338+620910891+621005823
3608+620215738+618282113+617453997+619987843+624852534+628594225+629724774
3598+630388355+632691185+635804785+638051222+640461685+645517547+652403175
3588+655730663+652103065+645223098+640054159+638026618+638269464+639692866
3578+641703133+643718119+644771445+644830160+646039166+650628569+657139549
3568+660244584+657149927+651852235+648674767+647428746+646309156+645014146
3558+644420022+645159012+646918885+648424590+648961813+649647966+651508142
3548+653234993+652471254+648998973+644395780+639505759+634911421+632063167
3538+632070860+634345240+637106908+638680982+638471957+637325369+636406603
3528+635678354+634245808+631621965+627994657+624087271+621057281+619689257
3518+619743037+620572967+621899985+623418972+624227782+623652456+622624097
3508+623102459+625559808+628050615+628697721+628103089+627860968+627854074
3498+626533878+623178303+618760185+614919570+612907633+613263846+615572482
3488+618379730+619785713+618781305+616092287+613334029+611535326+610610464
3478+609919738+609012512+607855182+606612210+605488774+604761541+604355866
3468+603653492+602390016+601601709+602900748+606426337+610078467+611251546
3458+609074276+604923427+601231488+599700091+600156788+601120190+601695698
3448+602388383+603532649+603875000+602006586+598669954+596061316+595009442
3438+594546756+593924327+593397119+593024032+592322855+591344720+590565050
3428+589851317+588972796+588696201+589885211+591715050+592135386+590386762
3418+587982758+586600508+586045105+585265108+584254857+583735307+583757262
3408+583674668+583216374+582735943+582389528+581774138+580525215+578921928
3398+577653590+576986053+576597434+576083037+575186625+574047076+573532280
3388+574518906+576460515+577367342+575818272+572542932+569608019+568714002
3378+570250698+572941313+574518906+573796101+571818566+570263435+569423199
3368+568688273+568257885+568944184+570536148+571722255+571797555+571541935
3358+572095851+573498495+574610246+574390879+573099424+572043014+572151663
3348+573029350+573556775+573124064+571946884+570459215+569034834+568101370
3338+567978242+568677459+569718120+570167814+569459524+568248123+567789902
3328+568358333+569032692+569074243+568511183+567393734+565691923+563977593
3318+563031247+562707367+562190248+561315501+560883843+561491503+562523672
3308+562866712+562537897+562739918+563983036+565268212+565751002+566016565
3298+566766768+567365138+566864204+565654437+564916245+565036833+565591947
3288+566405112+567498936+568145679+567358715+565550360+564392267+564756863
3278+565864441+566676481+567101934+567396819+567369675+566883002+566462521
3268+566739152+567615859+568350059+568287098+567442616+566407217+565562226
3258+564755847+564128882+564446628+565950156+567495634+567701502+566739044
3248+565972946+565802133+565122367+563388077+561835341+561762618+562819827
3238+563922760+564757553+565334367+565139531+563781015+561711306+559618553
3228+557815132+556510433+555920953+555919792+556127765+556218523+555895478
3218+555057347+554104469+553674770+553841083+553847180+552969166+551298382
3208+549461975+547742564+545922669+544149006+543251541+543739520+544969356
3198+545816378+545810572+545162413+544113551+542818686+541707297+541382801
3188+541791270+541899520+540844199+539159008+538126258+538134169+538338549
3178+537772331+536239627+534098211+531716162+529587701+528574982+529072396
3168+529967719+529546186+527633862+525701289+524760568+524338817+523611258
3158+522569654+521650960+520732521+519213244+517063191+515077273+513986823
3148+513735558+513636634+512956795+511511040+509992053+509315988+509415928
3138+509200117+508062093+506769840+506266765+506349504+506153834+505299263
3128+504068447+503016247+502632417+502840390+502810488+501827672+500225256
3118+498953579+498445025+498308070+497999432+497522231+497321081+497535259
3108+497615639+496816554+494976808+492829985+491490774+491411229+491933754
3098+492139368+491823799+491325369+490914323+490692089+490654130+490651917
3088+490531437+490251431+489802136+489273985+488846537+488356671+487270250
3078+485471583+483561364+482073223+480982992+480226075+480056677+480529814
3068+481031837+480729513+479461211+477868630+476605735+475760744+475149238
3058+474794694+474791246+474866546+474481301+473425508+472057339+470851163
3048+469939075+469230676+468746254+468615178+468832985+469132006+469143582
3038+468752314+468213748+467779949+467268854+466240350+464645156+462952672
3028+461547596+460459687+459695186+459250573+458794927+457965578+456985556
3018+456329885+455820714+454787673+453151909+451669937+450991404+451039161
3008+451407567+451795388+451862813+451236174+449978323+448638568+447612713
2998+446831700+446161913+445655100+445285279+444832573+444159774+443306728
2988+442270603+440990144+439649699+438771505+438700051+439051148+439078183
2978+438594813+438087928+437896539+437691651+436848911+435180413+433308516
2968+432212369+432258891+432820755+432976798+432354332+431176063+429860113
2958+428757507+427998413+427458940+426925491+426279074+425602211+425133248
2948+424963306+424824573+424404636+423735720+423022532+422337286+421734706
2938+421327434+420985301+420296789+419121750+417902329+417142509+416867329
2928+416851870+416978338+416997172+416433059+415248221+414112592+413502646
2918+413068665+412338965+411419909+410540661+409562236+408370468+407241117
2908+406501872+406199730+406249773+406524481+406683789+406323004+405419588
2898+404323332+403306731+402410537+401622085+400947000+400429264+400196288
2888+400246113+400175422+399473846+398156626+396833056+396082309+395898904
2878+395768408+395248205+394421178+393700405+393331164+393294149+393492686
2868+393677107+393367997+392343448+391085380+390249970+389837146+389336647
2858+388518692+387605079+386804108+386118462+385556708+385201801+385033928
2848+384846132+384423111+383759711+382985883+382122603+381140513+380244899
2838+379751477+379590499+379270829+378479038+377428470+376484121+375755654
2828+375212226+374875645+374679539+374369050+373781131+373100639+372621733
2818+372288817+371703475+370687563+369583941+368770159+368174547+367555891
2808+366930958+366425887+365997095+365522108+364921198+364161922+363413896
2798+363064941+363232524+363412989+362997334+361994995+360871667+359853977
2788+358837703+357871616+357260109+357160859+357376343+357517943+357241674
2778+356458847+355425299+354514734+353880583+353403056+352858466+352097340
2768+351178356+350313443+349627399+349078418+348592508+348084860+347409158
2758+346500154+345527825+344771743+344341682+344015117+343391054+342323757
2748+341125783+340169712+339446326+338754512+338144711+337851786+337838322
2738+337686271+337046895+336055623+335126116+334426717+333817968+333218836
2728+332694822+332230032+331742090+331267683+330863278+330438479+329888736
2718+329237094+328543138+327820587+327067444+326302254+325632104+325249291
2708+325189051+325156899+324800794+324087061+323240039+322404085+321543200
2698+320649582+319873577+319347567+318991572+318627810+318226091+317900868
2688+317718008+317605149+317408281+316991828+316333037+315534097+314716287
2678+313938831+313238089+312657900+312178268+311693519+311142252+310605029
2668+310226280+310079672+310076769+309957451+309486782+308733821+308011124
2658+307501263+307107963+306667051+306176713+305841003+305858640+306070459
2648+305993309+305401833+304626337+304073419+303759827+303498546+303226704
2638+302956025+302616704+302110617+301451063+300766688+300154619+299585026
2628+299016395+298540991+298270093+298116300+297875849+297509075+297149143
2618+296856435+296561804+296233389+295915878+295605624+295226731+294756461
2608+294317164+294086638+294066298+294002084+293676064+293197175+292824033
2598+292616750+292470560+292346433+292244987+292086948+291812295+291479796
2588+291132873+290697459+290134797+289562537+289102918+288738758+288439954
2578+288272716+288217720+288051262+287642321+287226103+287110940+287224942
2568+287228698+286991948+286686830+286471545+286333538+286209666+286076721
2558+285928734+285768663+285618717+285506130+285451515+285453674+285454908
2548+285355966+285104519+284752062+284397155+284085051+283762460+283322128
2538+282716682+282048310+281516966+281273957+281325614+281531137+281674678
2528+281621968+281436495+281274483+281197441+281167956+281154711+281141919
2518+281100114+281011333+280884757+280752791+280679687+280711513+280794578
2508+280810908+280695872+280456147+280100079+279635633+279146711+278780972
2498+278594247+278478394+278323821+278150758+277979329+277727120+277371324
2488+277049059+276865237+276753031+276627254+276528221+276497194+276430240
2478+276202182+275867633+275582673+275369657+275117502+274782446+274441855
2468+274178814+274028123+273982581+273951082+273757534+273287410+272652170
2458+272145865+271990149+272131985+272303886+272263532+271978990+271600731
2448+271287520+271101684+271050136+271104225+271134998+270966762+270577308
2438+270143545+269844632+269733315+269808796+270038742+270259688+270258545
2428+270050481+269883461+269887725+269939455+269929294+269914053+269937895
2418+269922835+269800885+269620293+269486695+269461764+269542471+269710199
2408+269939383+270164901+270310656+270324827+270153960+269815546+269517359
2398+269505855+269776173+270101177+270312144+270443401+270691727+271295141
2388+272394881+274037849+276316565+279365080+283189329+287653734+292717851
2378+298628992+305758083+314114325+323080621+331854913+340078010+347732711
2368+354605856+360255153+364391958+366981690+367980328+367236693+364818101
2358+361123187+356361738+350390811+343625082+337701513+334468703+334643725
2348+337917287+343619639+350730440+357556192+362233704+363960445+363364579
2338+361537208+359056272+356136637+353106175+350255526+347587737+344949560
2328+342144634+338880326+334893648+330278190+325561812+321277237+317512830
2318+314005929+310527479+307023155+303516055+300040381+296676732+293580496
2308+290867981+288445216+286078227+283678723+281368054+279234803+277229579
2298+275352565+273765699+272627639+271878760+271237496+270445107+269526087
2288+268732572+268217504+267879580+267548189+267179165+266822154+266491669
2278+266123082+265669741+265226670+264945266+264794631+264577622+264231715
2268+263916490+263759522+263716465+263722525+263789370+263886497+263890906
2258+263758560+263624527+263614021+263650074+263566138+263328354+263055170
2248+262884811+262875811+262975515+263048366+262977003+262790623+262683497
2238+262825968+263157323+263485848+263770318+264129743+264613929+265152531
2228+265693565+266247335+266829412+267438251+268065181+268717639+269431136
2218+270224560+271062655+271911710+272816487+273882731+275178831+276645289
2208+278108953+279425810+280629699+281920899+283468409+285218721+286949490
2198+288511806+289960374+291449622+293064049+294767275+296476689+298121072
2188+299606274+300827545+301771877+302518233+303151641+303766468+304429795
2178+305050773+305472416+305716133+305919025+306072201+306016316+305630164
2168+304924306+304011255+303008317+301938625+300734446+299339313+297818766
2158+296307273+294776765+293024439+290997678+288869144+286773234+284787915
2148+282997523+281333289+279859355+279352778+280797227+284203843+288665236
2138+293446553+298341129+303252107+308090670+312870808+317593137+322251380
2128+326980133+331992920+337400967+343128829+348964071+354770427+360607991
2118+366539036+372552457+378808906+385605662+393063060+401396839+411539046
2108+424901215+442509965+464710295+491230219+520827889+551223772+579999858
2098+605353742+626286677+643034578+656687460+667811430+676487124+682917398
2088+686398605+685196858+678460232+666535653+649784413+628624054+603824594
2078+576461967+548153393+520502049+494286192+469929712+447983913+428641926
2068+411699770+397042807+384490608+373630459+364251266+356326465+349591364
2058+343760803+338832316+334785579+331481897+328940031+327271280+326511460
2048+326732206+328076606+330800026+335470644+342815764+353385855+367753304
2038+386740457+410901012+439854769+472186963+505740501+538242166+568053542
2028+594237501+616332302+634586344+649640853+661822577+671590716+679893141
2018+687023720+692002359+693771668+692288027+688077554+681374678+672085554
2008+660193199+645831448+629253524+610958621+591502142+571155239+550069998
1998+528696986+507891498+488519173+470723317+453788128+437178524+421346921
1988+407058837+394551455+383636836+374018498+365358009+357415934+350162081
1978+343641920+337844492+332672105+327970461+323766883+320413195+318092112
1968+316208311+313766167+310490610+307083286+304262847+302083273+300262053
1958+298679760+297333945+296109661+294839635+293519513+292385317+291723513
1948+291632936+292113058+293142524+294183747+294039770+292168453+289629345
1938+287798128+286966383+286639890+286410925+286212442+286124169+286154924
1928+286311493+286905018+288233487+289810155+290832073+291469853+292282401
1918+292604267+291328834+289063291+287605161+287796277+288966961+289844249
1908+289699347+288872392+288199702+288044585+288162125+288333627+288735419
1898+289619275+290774555+291610691+292113766+293130149+294885142+296018358
1888+295326979+293599240+292277248+291680239+291442999+291420046+291573404
1878+291743418+291839040+292043891+293058442+295963017+300931568+305723681
1868+306813767+303573483+299064823+296058693+294985209+294953293+295096798
1858+295066605+294990489+295128369+295485181+295985335+296874852+298652906
1848+301847086+306540112+311049824+311958755+308358737+303735822+301217271
1838+300850607+301140665+301488967+303023214+306907466+311951860+314953146
1828+314783894+313489935+312193037+310061492+307227644+305259689+304869183
1818+305323231+305850693+306678555+308479181+311045650+312952966+313051019
1808+311919999+311154881+311993375+314835533+318907998+322219482+323110850
1798+322283714+322310495+325216122+330451506+334129002+332472842+327354599
1788+323598067+323168804+324817124+326861867+328860377+330575288+331420714
1778+331930865+334133828+339631800+347423384+353154984+352988236+348494128
1768+343373599+339704305+338876625+341449409+345388911+347431403+347426504
1758+347479777+347938579+348575198+351152010+357324849+365172028+369935763
1748+369637576+366914047+364896195+364936984+366894052+369383879+370741053
1738+371774057+375693201+383286139+388992954+386983593+380575493+374731541
1728+370648189+368700919+369149525+371278966+374927901+381842416+393337333
1718+406137204+412123299+408162931+400223360+394081294+391885807+394099874
1708+400209498+408000392+414543198+420106997+427949931+438304501+445656117
1698+446702148+443775727+437775697+430438633+426363845+427623765+432698315
1688+440320031+451727019+466135257+474586649+470592132+462095561+457332697
1678+458450472+464272432+471344259+476787506+481845691+488072709+492274436
1668+491006969+488267727+489964421+496374916+502590286+504759899+505307573
1658+509217572+519690917+537336028+555808929+560150296+553067147+550619015
1648+555102889+557922584+551987003+542447957+536668636+536578712+542066595
1638+552578660+564264965+568333911+562063962+554411910+552131361+555191943
1628+560480272+565838858+571370033+576234761+578058793+577965640+580555770
1618+587510928+594176681+594840371+591848956+590636177+592566100+595846739
1608+598448482+599874714+600806326+601840527+603029030+604310904+605904719
1598+608103943+610835456+613539933+615604562+616968086+618070040+619203709
1588+620305517+621377641+622631137+624099391+625729495+628250568+633201554
1578+640966901+648132463+649722576+647898399+649222368+655246640+661598746
1568+664005508+664367528+666588780+672422461+683706829+703688447+730727340
1558+748354888+748630902+746576435+750474168+759022415+768780901+777024393
1548+783342098+790476088+801445032+816132223+831173959+839506359+832669358
1538+816388061+804576703+800716928+800226010+797693180+793438725+791661433
1528+793764964+797738832+802112024+807674046+813602659+816105587+814379680
1518+811427494+808009574+803512781+799745253+799820952+805683229+817306101
1508+830433808+833671371+821904504+808138763+801775915+802811387+808223026
1498+813259800+812994673+807913408+804167290+806031459+812184411+816709509
1488+814560182+807648934+801525956+799202659+800023953+801970860+804637887
1478+809431742+817008604+825777415+832194407+832144255+825451685+817668556
1468+813887673+814884824+817620002+818500011+818515034+822023749+830970740
1458+841040006+842218457+832468244+821504090+815619967+815383653+818591677
1448+821335927+820866564+818315154+816514782+816816199+819375883+824255816
1438+830285313+833633558+831637152+827376165+824596497+823325800+821933753
1428+820219458+819372907+819814835+820947489+822658662+825221322+827079757
1418+825117826+819370512+813368377+809503086+807647990+806430420+805191440
1408+804737537+805390594+805555129+804304100+803810497+806334762+810819072
1398+814347093+815614234+814846648+812132953+808530104+806451105+807120202
1388+808838053+808684768+806646776+805904810+808568208+813824676+819681800
1378+825008668+829874956+834479600+838168744+840161521+840919381+841514594
1368+842514357+844429693+847862056+852092052+854589101+853551742+850340525
1358+847641128+846366294+845337790+843499605+841470467+840286936+839888918
1348+839618056+839217933+839098615+840159198+842976172+846765546+849664242
1338+850423845+849469443+848287871+848223785+849613438+851763418+853815854
1328+855406693+856498630+857310198+858543808+861005947+864756275+868870000
1318+872279138+874711375+876521110+878013388+879369074+880823030+882465981
1308+884070537+885369104+886404503+887522859+889137358+891476840+894335255
1298+896780629+897415034+895783406+893285051+891594199+890566929+888790072
1288+885759139+882368363+879593340+877624224+876059150+874454884+872782467
1278+871421120+870641051+870263209+869981098+869810685+869968107+870522240
1268+871531511+873176421+875206503+876721788+877291599+877700939+878748604
1258+879981705+880369490+879700175+878703460+878123126+878061507+878080813
1248+877615805+876309399+874318582+872408400+871365525+871266456+871730956
1238+872607917+873723660+874506777+874847677+875603723+877238036+878899929
1228+879739149+880042308+880308089+880526912+881114286+882973229+885907053
1218+888317371+889115294+889008242+889416929+890898828+893071671+895652403
1208+898895627+902765563+906375234+909019181+911222507+913869792+916812616
1198+919134824+920421924+921046604+921526417+922286237+923837376+926548023
1188+930189483+933955632+937142536+939736767+941991550+943621437+944025769
1178+943446015+943277416+944765195+947740969+950981072+953685840+955943526
1168+957575154+957951036+957555703+958242800+961106513+965063833+968229327
1158+970003135+971074605+972124447+973335485+974694220+976333323+978503408
1148+981220731+984079292+986435394+987746009+987996912+988047063+989145170
1138+991783456+995170965+997958181+999286505+999346528+999240055+999893113
1128+1000984978+1001536934+1001460945+1001731081+1003187070+1005699142
1120+1008183780+1009665462+1010726336+1012837197+1016051971+1018603018
1111+1019048720+1017840149+1016660683+1017401270+1021194055+1027238286
1103+1032845669+1035691383+1035918334+1035052188+1033976217+1033256751
1094+1033464542+1034095173+1034142276+1034307536+1036330578+1040332896
1085+1044585392+1047781876+1049881124+1050639710+1049287653+1045997398
1077+1042729643+1042199968+1045399137+1050228701+1053647346+1054819700
1068+1054980751+1055001073+1054826305+1055265329+1058556528+1065204681
1060+1071589375+1073741823+1072118324+1069727965+1067857700+1066200887
1051+1064610484+1063198695+1062852643+1064799985+1067681698+1067661086
1043+1064210869+1061404274+1061604590+1062922971+1062934656+1061164476
1034+1058273328+1055932395+1056159492+1058950482+1062308089+1064804412
1025+1066358745+1067077485+1066869404+1065918413+1064588638+1062786959
1017+1059920270+1056117251+1053560615+1054982420+1059977752+1064678780
1008+1066245305+1065388158+1063392333+1060171535+1056192587+1053149315
1000+1052136996+1052952266+1054530622+1054907011+1052373528+1047652614
991+1043244874+1040615516+1039321085+1038211729+1036390165+1033609843
983+1030861747+1029881725+1031190816+1033076757+1033103393+1030485720
974+1026385711+1022227204+1018708183+1016126218+1014674003+1014159134
965+1013672208+1011911173+1008238795+1003528187+999512659+996977506+995014487
955+992150483+987647158+982040573+977230170+975159735+975426823+975263958
945+972928104+969725379+967719393+967045360+966240687+964317078+961833601
935+960142241+959975239+960789565+961365907+960902351+959732973+959177170
925+960000278+961387391+961995450+961346602+959800543+957771550+955737332
915+954536310+954795994+956308812+958242872+959609663+959512771+957673860
905+955078976+953356117+953192091+953675534+953211760+951251716+949068349
895+948349246+949074083+949843701+950157529+950401609+950186269+948753143
885+946456191+944219915+942412140+941350178+941483141+942355892+942779458
875+942278452+941375653+940701620+940506675+940783270+941416224+941921658
865+941268165+938880273+935976496+934845585+936564524+940058070+943192718
855+944271591+942788095+939524113+936388232+935530359+937449251+940138632
845+941329348+941187385+941032286+940845615+940343230+940291627+940764690
835+940448250+939067307+938363082+939645028+942047798+943964803+944966163
825+945434510+945209663+943945788+942242743+941612185+943361607+947196415
815+950793240+951574108+949602161+947395279+946445522+945815762+944575113
805+943874952+945028000+946494222+945700726+943209919+941906561+942692510
795+943748811+943853396+944161853+946262988+949565799+951297295+949741293
785+946556930+944296485+943293093+943234087+945133383+948679331+950673922
776+949097380+946227280+945241162+946253190+947666939+948742474+949576759
766+950619561+952431908+954807244+956593753+956886606+955715703+953966426
756+953491838+955575700+958708824+959931111+958381351+955682535+953352851
746+951627017+950497557+950213269+950955452+952485761+954128276+955566628
736+957454674+960591209+964180413+965435941+962228861+956098190+950812909
726+948073449+946274020+943759770+941958019+943720941+949121186+954762245
716+957629152+957760518+956465798+954585445+952699068+951016127+949529946
706+948847276+949566090+950308636+948522635+944143200+940029184+938343631
696+938575082+938830993+937858011+935856235+933517551+930559558+926131787
686+920788589+916793383+915703841+916758473+918156689+918909977+919472240
676+921113811+923638440+924207379+919898346+910679260+900689104+895869992
666+895886902+896731203+896837530+896063267+894913848+894387657+894587464
656+894203817+892166405+888607538+885146797+883475687+883215059+883115119
646+883306362+884482417+885736712+885428110+883776741+882655917+883501089
636+887014594+892722788+897172623+895475385+886629060+875302015+866704996
626+862120384+860157146+859583199+859727049+859694751+859259355+859654471
616+860687692+859188664+854221493+850887256+854066902+861204376+865238266
606+863592340+860292069+858888554+858009924+854775336
##END=
