##TITLE=<SNM>
##JCAMP-DX=4.24
##DATA TYPE=INFRARED SPECTRUM
##DATE=3/5/2025
##SAMPLING PROCEDURE=Instrument type and / or accessory
##ORIGIN=Admin
##XUNITS=1/CM
##YUNITS=ABSORBANCE
##RESOLUTION=4
##FIRSTX=4497.3318
##LASTX=599.83466
##DELTAX=-1.4281778
##MAXY=1.722577
##MINY=0.17692065
##XFACTOR=1
##YFACTOR=1.6042748e-09
##NPOINTS=2730
##FIRSTY=0.20019954
##XYDATA=(X++(Y..Y))
4497+124791302+125601409+126759395+127207347+126523126+125318791+124350753
4487+123739854+123327969+123332725+124136739+125609342+127024849+127616966
4477+127129473+126008678+125132233+125159235+125961344+126669214+126429387
4467+125253763+124063369+123813168+124607540+125669010+126109448+125740912
4457+125151702+124955688+125076772+124968358+124418605+123736798+123174283
4447+122634376+122082254+121861283+122370027+123493265+124455656+124447910
4437+123513719+122477383+121916363+121691890+121551923+121627401+122127721
4427+122910929+123480438+123338400+122475785+121425851+120570788+119682120
4417+118557990+117625285+117345435+117501322+117655556+117856604+118241692
4407+118383284+117801718+116857273+116355625+116411578+116363306+115735047
4397+114784397+114120276+114117963+114714158+115547180+116215212+116488709
4387+116417727+116271890+116252672+116242659+115948764+115245492+114289455
4377+113466465+113218362+113602289+114070527+114051588+113625194+113274018
4367+113191723+113193191+113073723+112710853+111990249+111000206+110280763
4357+110527956+111840575+113403582+114136754+113674349+112629245+111926094
4347+111990054+112580518+113244871+113752000+114115873+114403972+114579161
4337+114434874+113779568+112760118+111855595+111451660+111532024+111861056
4327+112344304+112993202+113552828+113544209+112890388+112190497+112126788
4317+112829113+113890797+114680367+114690519+113958732+113108127+112767168
4307+113051598+113635505+114101950+114215556+114086828+114061276+114280222
4297+114477843+114411598+114263020+114331123+114591161+114868290+115182814
4287+115626986+116115389+116457667+116534389+116340466+115962205+115519491
4277+115130548+114921624+114955991+115168863+115487771+115890795+116244517
4267+116359024+116343094+116537194+116978840+117317365+117341775+117244850
4257+117307733+117616563+118056982+118368311+118335858+118119150+118163743
4247+118637768+119252354+119749563+120152122+120421356+120338569+119875384
4237+119285570+118776203+118433637+118387733+118668355+119027500+119235914
4227+119384110+119593406+119656837+119345043+118940905+119056332+119889706
4217+120993392+121896467+122565530+123041812+123076820+122519014+121741471
4207+121325026+121476473+121924054+122271124+122328601+122143353+121842604
4197+121532259+121231733+120845242+120363889+120067598+120235124+120718065
4187+121128706+121323233+121416526+121473640+121440286+121348117+121424895
4177+121844935+122417073+122823766+123148823+123719875+124456520+124883963
4167+124814690+124568547+124483178+124506259+124337164+123911560+123596032
4157+123703369+123984836+123963259+123624539+123379956+123428980+123518474
4147+123341911+122920282+122503818+122261139+122182857+122193724+122249408
4137+122384452+122722188+123328248+124047440+124666577+125200122+125755448
4127+126156447+126031760+125313153+124391575+123774602+123753796+124296731
4117+125066044+125651195+125900227+125909757+125726636+125357579+125047040
4107+125195849+125955511+127113841+128307959+129167750+129404158+128999908
4097+128251718+127502096+126909617+126532442+126408767+126399664+126223315
4087+125888895+125808912+126219302+126811540+127178433+127247566+127119052
4077+126950848+127033543+127437245+127681326+127271270+126360486+125484830
4067+124979392+124955911+125459640+126315614+127046649+127217955+126835022
4057+126286875+125902716+125731419+125784261+126169461+126811364+127351225
4047+127558904+127589798+127637549+127595798+127322839+127007563+126949529
4037+127137991+127359854+127561338+127801964+128030737+128152508+128178126
4027+128214378+128402450+128790362+129157997+129159975+128787324+128492176
4017+128673179+129160728+129431067+129281969+129054013+129110728+129345586
4007+129398381+129193126+129032836+129222616+129733442+130214396+130319039
3997+130059493+129797523+129839116+130137200+130430825+130511718+130361394
3987+130227056+130461569+131037414+131423951+131235080+130774329+130677674
3977+131200397+131993544+132468405+132403609+132168092+132194833+132405448
3967+132423244+132146747+131813888+131708557+131985324+132549985+133059510
3957+133233770+133130919+133056974+133411466+134503031+136035572+136942436
3947+136527449+135557488+135294812+135885973+136442070+136304304+135568188
3937+134802210+134867201+136388411+138819094+140499869+140402954+139398245
3927+138996810+139502062+139990530+139871155+139739910+140349889+141405266
3917+141708133+140427429+138084103+136007837+135086138+135434751+137105420
3907+140495067+145562238+150906464+154446964+155265393+153676955+150075532
3897+145487160+142141958+141977079+144705633+147358078+147300768+146127122
3887+146805993+148987562+150206517+150484435+151460666+151951902+149952163
3878+147331466+147280306+150060057+153926915+157541249+159522169+158492568
3868+155948417+154839343+155362615+155288847+153590089+151671113+151314791
3858+153739809+159814457+168480208+173447129+169031420+160065875+152711007
3848+148968539+149026034+152248713+157260497+162617494+167318730+170112256
3838+169586737+166373151+162934359+160436706+158341074+156468660+155627530
3828+156086275+157302239+159715331+164509265+170237631+172554402+170900712
3818+169005784+167484194+164147240+159581002+156758329+157343554+160896259
3808+165077121+167530673+169242062+172456539+175869417+176190907+174171811
3798+172599488+171301451+169187892+167232088+167008367+168661054+171462661
3788+174850088+178315742+181333323+184286685+188412540+193764745+198376867
3778+200939762+203021870+207059226+214174816+223884084+234042520+242106011
3768+247897891+253190891+259181878+266758136+277215919+290702429+305060099
3758+318016929+330295834+344555177+362534417+383288476+402462390+416558406
3748+427894241+439628808+450760410+457943545+462072206+467506148+476604443
3738+489425717+504309798+517372497+524506664+525908359+525777318+527380201
3728+530540415+532936081+533152538+532319777+531953776+531609734+529788165
3718+526307055+523237644+523578826+528549797+535418019+539611624+540292167
3708+540022989+541297396+545732165+553040286+560152347+563975381+564713959
3698+564476250+565337880+569145236+577001521+588308487+599689204+605410492
3688+603037935+596870915+591667845+588938762+588433918+589493280+592098010
3678+596755813+601624091+602493969+600045544+598815350+598789974+596118553
3668+590665403+586100633+584129669+583836007+584088020+585338834+588745563
3658+593774270+597929050+600330178+603531299+609610377+616551271+619112494
3648+615555144+610376670+608147118+609887989+613275211+614673860+613136740
3638+611678980+612956916+616344139+621025274+628693116+639660053+647832738
3628+646803582+641153183+638065567+639036986+642937226+647946428+651563632
3618+653134339+655148809+659059527+662901436+664600323+665245979+667005947
3608+669765050+672231309+674428203+676807819+678369090+677981726+677228324
3598+678886268+682526953+684751267+684444824+684901888+688980466+694767145
3588+696886239+693118786+687502940+683999129+682608468+681376677+679206235
3578+676743692+675634953+677291486+681585629+686634139+690214709+691566953
3568+691724336+692228214+693420400+693802488+691526604+686719518+682271633
3558+681500918+684893640+689525509+691949116+691528091+690416008+690849814
3548+693013270+695182299+695599758+694053869+691757254+689591792+687026036
3538+683530844+680067680+678464946+679684254+682749652+685361999+686070890
3528+685530899+684676068+683014260+680182707+677461426+676016075+675213780
3518+674061423+673089929+673398750+674588781+675024519+674108533+673017257
3508+672753540+672853112+672370115+671135648+669970138+669851321+670876018
3498+672274407+673850539+676180517+678691658+679595828+678628125+677879702
3488+678801112+679801437+678327775+674690880+672022580+672406600+674349958
3478+674726398+672702640+670726661+671131190+673139641+674190717+673065631
3468+670375559+667383577+665783369+666615314+668534225+669221864+668600210
3458+668555922+669880821+671307001+671568711+671205645+671747494+673637945
3448+675533078+675933223+675107966+674482522+674547912+674512542+673685279
3438+672221723+670489769+668786498+667597879+666595325+664393229+661051705
3428+658973479+659661787+661715789+663216796+663913798+663858365+662505378
3418+660663524+660563432+662633038+664395309+663652088+661347894+659830242
3408+659694260+660108746+660809835+662051435+663552145+664720107+665381367
3398+665465483+664426370+661760671+658150303+655471080+655125774+656585541
3388+658057939+658379318+657696434+656602334+655237012+653493912+651962811
3378+651874088+653718246+656315136+657666934+656986651+655644885+655549177
3368+656839077+658165016+658748923+658683532+657924186+656669211+655687983
3358+655130010+654636907+655013793+657426773+660787543+662329344+660987206
3348+658316306+656126768+654945133+654532059+654412424+654261209+654374305
3338+655055182+655703216+655545016+654997074+655103333+655692664+655303517
3328+653113385+650116052+648206281+648350957+649645464+650250028+649172424
3318+646962749+645247514+645510859+647446266+648816269+647983582+646086071
3308+645472665+646847944+648969194+650282575+650169107+649208166+648572170
3298+648787661+649236626+649176808+648854463+649130366+650286885+651509239
3288+651516521+649955920+648156867+647874127+649043947+649663298+648649895
3278+647662649+648815006+651733276+654225393+655247861+655584399+655866766
3268+655756866+655042773+653862402+652203641+650417294+649471362+649710557
3258+650155212+649733964+648736835+648292106+648686677+648981603+648215569
3248+646632007+645493248+645665938+646582667+646905086+646126495+645130554
3238+645246696+646907390+649117511+650507206+650991615+651303334+651015542
3228+648914652+645343593+642253376+640815233+640469333+640309944+640354900
3218+641287085+643145287+644557868+644175929+642840998+642654339+643710988
3208+643865473+642135154+640036122+638979324+638522557+637789516+636871969
3198+636181432+635573227+634487969+632588749+630441195+629222853+629171209
3188+629160658+628424644+627498627+626812028+625697493+623560936+621045077
3178+619352952+619044057+619791922+620728788+620821970+619551204+617652987
3168+616501819+616420824+616404439+615764245+614830240+613803982+612471578
3158+611196094+610641019+610477282+609657227+607874484+606012939+605256825
3148+605858825+606648340+605889737+602953114+599062831+596266536+595731673
3138+596897145+598265439+598974665+599068849+598398821+596568447+594224201
3128+592943329+593286629+594091711+594201612+593813988+593521551+593110632
3118+592056918+590517234+589298892+589036513+589508364+589781480+589037516
3108+587161815+584512092+581642010+579318199+578145630+577972308+578079014
3098+578049774+578070208+578400727+578966837+579500215+579780093+579649312
3088+578961970+577743070+576416277+575434269+574526346+572958908+570778547
3078+569070854+568634745+568927144+568707306+567556249+566410394+566381860
3068+567267528+567793401+567323296+566367667+565259969+563545885+561050944
3058+558529773+556863247+556278708+556578910+557507825+558550096+558900789
3048+558081031+556386082+554580824+553398224+553207217+553678214+553835448
3038+552956170+551401142+550100356+549389086+548870830+548221013+547543517
3028+546952142+546295600+545371775+544156777+542855545+541790016+541068418
3018+540407863+539550135+538695378+538163226+537801016+537160970+536210877
3008+535460597+535233662+535043510+534110656+532492838+531149474+530703148
2998+530624493+529969883+528661072+527577784+527353599+527496492+527035303
2988+525793592+524472260+523578418+522929827+522212093+521398391+520561765
2978+519815460+519425533+519454067+519415613+518785375+517683659+516676238
2968+516146093+516066881+516006878+515353940+513962871+512414010+511295908
2958+510567734+509862149+509008656+508041993+507052777+506141733+505230911
2948+503990797+502329807+500876951+500467072+501103960+501892025+502042237
2938+501466951+500399861+499071618+497827603+496982581+496440063+495828255
2928+495032795+494272335+493658556+493011897+492171371+491204336+490193905
2918+489133281+488147000+487486706+487187173+486962282+486498976+485676543
2908+484549005+483309522+482258743+481624605+481324069+480978020+480285996
2898+479328027+478352670+477422751+476449363+475373877+474145986+472741839
2888+471347537+470348550+469981435+470051878+470161296+470157878+470062987
2878+469605292+468422357+466836528+465751791+465554988+465643005+465156218
2868+463859259+462345917+461509663+461642041+462015027+461606559+460209694
2858+458530201+457307475+456663640+456267099+455859523+455428876+454932094
2848+454129018+452844357+451324105+450240222+450183116+450934474+451439987
2838+450930573+449783418+448764219+447980426+447205698+446559411+446143439
2828+445636849+444857737+444120126+443640324+443204660+442632903+441996610
2818+441301948+440475020+439649800+439052147+438651482+438211954+437580826
2808+436728521+435681272+434587617+433625189+432719458+431684952+430628897
2798+429770685+429021371+428241664+427627849+427303461+426877011+425918485
2788+424580099+423327353+422307448+421355461+420469978+419922148+419832459
2778+419900822+419677677+418912869+417604652+415971601+414385624+413097842
2768+412085257+411292733+410759095+410311245+409507649+408197612+406831547
2758+405915041+405407411+404890158+404086859+403023076+401905569+400975539
2748+400315059+399768937+399131381+398295721+397211801+395942039+394757729
2738+393930058+393412842+392889756+392142596+391257039+390398716+389505914
2728+388428161+387308202+386512260+386179103+386108585+386033869+385782191
2718+385277273+384532082+383599860+382539310+381421840+380302289+379231893
2708+378352726+377776474+377292362+376504779+375384485+374360531+373730257
2698+373282704+372671044+371897282+371198422+370633984+370045953+369339626
2688+368566830+367770665+366947303+366158717+365529260+365100470+364767908
2678+364366797+363772488+362967405+362088536+361358764+360872906+360501816
2668+360075924+359560491+358979222+358300351+357492445+356601092+355710520
2658+354900050+354264017+353863910+353580910+353152455+352509065+351922409
2648+351611508+351383867+350907223+350140855+349272575+348443454+347724568
2638+347146123+346603272+345939931+345209193+344642080+344307028+344042903
2628+343750207+343460297+343098235+342508235+341766946+341151681+340758707
2618+340422318+340025963+339665313+339480102+339452980+339381533+339008994
2608+338225015+337189952+336255055+335710011+335576184+335644583+335691917
2598+335595095+335258669+334586559+333620825+332614779+331854244+331440575
2588+331303850+331302252+331221554+330873053+330333880+329902340+329724894
2578+329662328+329518617+329199356+328722118+328224742+327864798+327657555
2568+327518674+327405653+327321760+327304186+327455810+327829019+328280993
2558+328592972+328689237+328619128+328389481+327957199+327378419+326818737
2548+326387792+326083281+325885326+325755400+325583936+325292317+324938689
2538+324619056+324330149+323989525+323573924+323237832+323223119+323569800
2528+324027644+324326359+324404716+324346274+324227456+324039088+323705671
2518+323227206+322753423+322417406+322194632+322019156+321904834+321862962
2508+321802030+321593970+321224700+320838079+320586995+320459780+320321197
2498+320105000+319877063+319703592+319527707+319226131+318773451+318282057
2488+317858952+317495180+317114653+316656288+316123171+315645747+315447383
2478+315592951+315790274+315639988+315121211+314624765+314452483+314501860
2468+314519062+314426921+314261774+313979406+313517140+312974957+312570243
2458+312392537+312317004+312194062+311989791+311689256+311247220+310723726
2448+310298892+310086076+310052861+310112307+310166885+310114443+309916396
2438+309623365+309305924+309027513+308864743+308846742+308870892+308781371
2428+308563000+308367813+308298188+308254160+308099193+307904935+307864939
2418+307988939+308061296+307928657+307687567+307550526+307629292+307865236
2408+308087935+308145635+308047679+307955724+307992729+308123603+308241268
2398+308269486+308152081+307885281+307609266+307525280+307664532+307841848
2388+307838764+307492994+306633389+305122295+302984047+300317623+297083065
2378+293188286+288804547+284351108+280105543+276043443+272064251+268168860
2368+264541067+261692294+260212204+260065299+260563789+261371528+263086001
2358+266549333+271978241+279087311+287715704+297481556+306835040+313554443
2348+316294560+315444745+312896823+310502884+308425903+305813761+302398283
2338+298579260+294722341+290847236+286855263+283038061+280183603+278879733
2328+278831266+279133567+279140069+278938919+279072561+279921930+281398100
2318+283117329+284736540+286147969+287430401+288647536+289772771+290840585
2308+292029669+293487893+295111043+296552901+297510852+298003602+298281474
2298+298516768+298753437+299068518+299533496+300076348+300567649+300962629
2288+301259041+301435799+301515048+301585268+301694073+301760039+301659427
2278+301413247+301210927+301174646+301170578+300967905+300549704+300141868
2268+299952366+300001836+300174749+300301815+300234622+299980138+299720880
2258+299602732+299559894+299417131+299109239+298741956+298460592+298325798
2248+298347626+298545283+298884942+299258893+299608249+299946403+300230610
2238+300374431+300410043+300515058+300871101+301509735+302250597+302835544
2228+303189525+303483875+303910436+304479778+305069852+305614506+306221838
2218+307108212+308385443+309912049+311426691+312837266+314279050+315887394
2208+317660886+319552563+321538499+323591126+325694282+327869999+330131281
2198+332423103+334648309+336794934+339006170+341408376+343916061+346334131
2188+348545478+350521086+352326084+354083451+355727610+356965755+357679440
2178+358125952+358620876+359226554+359773753+360057978+360008675+359703235
2168+359292279+358935307+358662302+358278208+357561105+356506648+355299489
2158+354151739+353148591+352218338+351356522+350707337+350293557+349970952
2148+349614871+349152197+349009304+350634367+355386206+362735752+370738423
2138+378233835+385414704+392640901+399921044+407174549+414300617+421228804
2128+427994518+434663188+441316661+447980054+454432229+460258960+464928169
2118+467815601+468762982+468513792+468022621+467762546+468167037+470142868
2108+474670187+482233330+492832260+506069692+520666650+534148144+543782157
2098+547837811+545879368+538875016+528955775+517899224+506232982+493973471
2088+481021676+467062385+452174663+437009700+422116516+407972200+395252096
2078+384308455+375018113+367288968+361009892+355859209+351668093+348409904
2068+345826909+343637631+341724367+339868692+337930089+336121562+334613830
2058+333369629+332480543+332027528+331836781+331805387+332045585+332659549
2048+333798791+335732080+338724471+343170424+349623416+358467171+369981232
2038+384632546+402671937+423557668+446018900+468272182+488202582+503923698
2028+514246761+518850952+518439698+514283023+507500515+499129504+490127140
2018+480809231+471021663+460966960+451206959+441970639+432917970+423534484
2008+413667519+403698975+394203100+385534859+377742738+370683361+364146513
1998+358024820+352524075+348087708+344806670+342005249+338882374+335447558
1988+332259738+329617260+327540855+326051403+325036923+324203530+323325106
1978+322357105+321393563+320567860+319868257+319223084+318829590+318954315
1968+319319015+319211827+318385010+317365848+316722608+316471412+316344532
1958+316266212+316277953+316243363+315966605+315497764+315094164+314923145
1948+314964237+315243744+315925068+316852385+317264456+316580272+315217031
1938+314014962+313338766+313080176+313014229+312965074+312901356+312899907
1928+313065984+313631796+314751496+316008515+316817535+317386877+318190696
1918+318661433+317837068+316174257+315162824+315472202+316448674+317042723
1908+316840385+316233591+315780466+315632074+315601125+315556429+315621894
1898+316031290+316732305+317279912+317517733+318001622+319022381+319758728
1888+319359847+318259654+317384128+316985395+316874046+316908710+316953480
1878+316919819+316897081+317071294+317841526+319870152+323241139+326410456
1868+327035157+324752066+321622578+319513997+318729536+318663439+318732099
1858+318703379+318599498+318508806+318496805+318706463+319376901+320722642
1848+323004024+326314153+329527794+330238952+327759133+324519447+322818888
1838+322816733+323424455+323990639+325136234+327730487+331078587+333037587
1828+332832796+331853241+330910727+329500041+327686683+326462173+326311887
1818+326794550+327382098+328171984+329612690+331592794+333139425+333432307
1808+332851745+332540694+333410164+335669699+338612342+340837584+341444749
1798+341131581+341615210+344113421+348127388+350993605+350228166+347125689
1788+344940795+345046014+346688353+348802804+351004008+352906163+353957314
1778+354589706+356405404+360674320+366714312+371397231+371951415+369437563
1768+366488195+364588307+364640508+366922187+370027822+371957657+372839573
1758+373983310+375316680+376598146+379193736+384249640+390216737+393802026
1748+393927383+392486156+391518006+391980606+393874067+396141033+397443194
1738+398416991+401481794+407106558+411228048+409977382+405943352+402586892
1728+400580299+400011142+400970300+402951258+405936850+411286491+419904463
1718+429356199+434092879+432118015+427323338+423479571+422136913+423809421
1708+428262582+433996614+439059578+443757878+450439774+459255143+466083981
1698+468241196+467367045+464285448+460187885+458294610+460176070+464820944
1688+471395020+480868640+492629252+500142015+498818045+494451749+493044444
1678+496006109+502214333+509048002+514527197+519711356+525869014+530715037
1668+531419730+530496202+532307256+537297101+542179646+544454972+545784403
1658+549365160+557317710+570566548+586042747+593699554+592475974+592674226
1648+597329539+601312632+599517740+595032293+593036473+594922541+600432982
1638+609073395+618105333+621410780+617327707+612385828+611426038+614322535
1628+618794421+623405782+628467594+633888309+638468090+642653298+648867987
1618+657630598+664663930+664935598+660293622+655296235+651432183+648240685
1608+645381267+643249837+642528834+643579093+646334258+650546143+655754265
1598+661041302+665260915+667717588+668470989+667994457+666842025+665642408
1588+664947784+664784680+664567182+663795873+662968535+663696450+667586733
1578+674482522+680907723+682502506+681270046+682901685+689035304+696672829
1568+702424063+707105496+713444650+722738335+735972535+755224212+779781577
1558+798783136+805589236+809329790+815896027+824503856+833047186+840297273
1548+846242152+852213930+859531859+868119477+876562641+880585636+874084716
1538+861292793+852989624+851644662+852563917+850584520+846820708+845959710
1528+849195792+853992326+858399862+863333717+869150118+873347885+874298795
1518+873199196+870933047+868239334+867083187+868926454+873720090+880939042
1508+888626055+890372425+882320563+872272882+867154522+867480137+871026600
1498+874245740+874031215+871323309+870300395+873143243+878024042+880584150
1488+878227049+873084317+868846796+867397433+868442639+870463277+872424023
1478+874647594+877870820+881963516+885155311+884560110+879933516+875271923
1468+873960994+875785535+877817542+877809517+877567349+880507614+887272920
1458+893708524+892845073+885017768+877586000+873796478+872830558+873092194
1448+872938303+871172019+868189102+865687325+865076742+866818951+870558167
1438+874614304+875624214+872102792+867574507+865597636+865891001+866003874
1428+864874701+863902539+864401438+866105378+868277454+870432068+871217867
1418+868848505+864089867+859494408+856244060+853981329+851961806+850111852
1408+849470060+850833078+853016523+854078597+854251882+855227685+857163463
1398+858530420+858140678+855640907+851288210+846754426+844198627+843901175
1388+843801455+841825104+838934477+838110410+840631432+845354328+850806476
1378+856519888+862270900+867115362+869929527+870874270+871422138+872645161
1368+874546164+877221003+881294231+886267839+889656177+889555045+887139538
1358+884789719+883569594+883322448+883646427+884275810+885043776+885826826
1348+886587286+887505427+888980649+891333812+894504206+898019535+901071483
1338+902772377+902916607+902512673+903054373+905343334+909140064+913483770
1328+917086930+919137662+920251082+921953462+924920997+928373090+931214675
1318+933249505+935097304+937135999+938958013+940020979+940599163+941540116
1308+943219312+945362631+947454530+948685876+948321101+946907331+946154747
1298+946788737+947361646+945989042+942663048+939111532+936934626+936482095
1288+936957736+936978393+935454945+932476561+929278673+927147020+926301924
1278+925863139+924756407+922533430+919698459+917419232+916530889+916729809
1268+917043014+917064564+917282135+918214914+919621403+920508186+919906817
1258+917879343+915531827+913661216+911688507+908421439+903712587+898724116
1248+894453752+890713718+886993747+883643678+881350333+879985605+878966704
1238+878245403+877987185+877891106+877666475+877621742+878131639+878985504
1228+879758819+880490895+881549848+883122041+885197517+887727977+890439970
1218+892792390+894459771+895591693+896473498+897306408+898285481+899564309
1208+901254725+903433340+905826480+907802905+909181156+910660168+913075303
1198+916547756+920301017+923234519+925067457+926719456+929014139+931517180
1188+933276553+934259044+935407909+937429735+940172194+943190853+946495966
1178+950295817+953950249+956137855+956626425+956755348+957635221+959002475
1168+960280040+961752661+963972442+966646835+968763478+969588883+969250265
1158+968441579+967847195+967947881+969143783+971651430+975001202+977985308
1148+980004906+981889041+984336054+986679482+988126839+989081316+990310656
1138+991713874+992757148+993366617+993849391+994735877+996645797+999415823
1128+1001673724+1002454545+1002838714+1004450141+1007155446+1009740225
1120+1011993147+1014629792+1017939884+1021416795+1024036573+1024915702
1111+1024269229+1023059581+1021833882+1021267438+1022699859+1026046213
1103+1028836451+1029667429+1030472994+1033221100+1036968119+1039889435
1094+1041946781+1043865097+1045606340+1046927226+1047533945+1046848980
1085+1044588553+1041207126+1037860401+1035809669+1035763524+1037305548
1077+1039345506+1041358118+1043606211+1046543503+1050262062+1054395850
1068+1057791321+1058668518+1056746858+1054619366+1055291030+1059109235
1060+1063950279+1067738390+1069943458+1070768566+1070159469+1068249772
1051+1065234978+1060879828+1056021396+1053777465+1057072918+1064954839
1043+1072226252+1073741823+1069497986+1064095996+1061528011+1062252209
1034+1064588058+1067138953+1069246753+1070384323+1070478173+1069880817
1025+1068291979+1064928163+1060226147+1056275675+1054914738+1055963733
1017+1057857751+1059332454+1059742481+1058845964+1057454783+1057105390
1008+1058440915+1060728762+1062779940+1063745265+1063368602+1061833859
1000+1059464275+1056784829+1054495347+1052940170+1051871632+1050639171
991+1048401779+1044916768+1041227561+1038604291+1037081066+1035696499
983+1033703875+1031173266+1028810518+1027265001+1026441750+1025661153
974+1024496014+1023043084+1021089472+1017604684+1012079046+1005844368
965+1000794966+997301261+994316115+990785702+986190317+980855798+976204757
955+973443276+971959880+969906324+966416706+962411469+959261584+957514843
945+956752376+956455741+956800156+957882441+958683028+958245283+957343713
935+957236637+957453614+956765305+955432084+954462152+953961469+953779713
925+954255726+955239777+955644975+954969001+954035033+953430618+952898578
915+952504601+952874874+954027454+954956518+954797872+953603902+951783894
905+949979268+949286501+950203676+951475742+951255050+949361329+947328876
895+946467952+946849966+947760453+948161638+947071178+944392253+941611600
885+940645383+941769429+943459399+944134183+943306846+941395589+939288903
875+937890515+937530942+937885759+938395878+938446630+937532725+935776547
865+933892412+932268501+930439724+928022732+925721584+924502350+924493656
855+925600017+928165402+931905287+935095967+935980372+934662384+933154986
845+933497320+935593603+937421784+937537407+936266083+934557462+933114935
835+932616333+933320469+934608883+935833318+936782816+936910625+935667836
825+934010858+933714892+935048782+936867155+938569535+940149456+941270976
815+941840764+942452015+943312568+943906803+944292086+945123213+945976261
805+945603090+943948638+941857483+939655238+937981393+938217021+940506948
795+942951360+944027032+944664292+946888828+951264709+955809342+957377746
785+955134335+951890005+950145419+948676513+945784251+943504801+945080858
776+949928070+953948242+954413926+952269938+949941891+948963339+949379608
766+950322790+951351649+953043997+955339497+955995111+952554312+946270443
756+941338967+939738016+939822355+939912044+940473881+942160731+943887260
746+943943734+942446888+941737031+943631346+946934676+949096126+949662570
736+949886978+950035890+949486091+948331133+947412546+947373238+948194110
726+949331086+950124316+950142595+949582541+949542118+950722787+951698218
716+950265351+946688942+943861253+944269869+947531661+950701906+951462961
706+950747457+950401630+949511281+945850087+939771306+933917899+929907907
696+927905846+927571464+927326472+925105874+921274814+918494756+917884916
686+917254121+913795712+907631181+901888046+899552643+900973175+903825014
676+904860634+901851710+894500417+884074066+873591910+869651172+876809044
666+886969374+891092314+889692513+886446251+882962429+879882021+878344158
656+878470257+878808281+877996325+875973533+873303821+870250832+867353591
646+865902073+866323841+866908491+865746028+863810992+864136830+867316586
636+869630366+867526207+862305453+857798048+855526920+853754469+850183261
626+845656090+843232113+843393211+843233970+840565893+836533981+833416270
616+831802242+831052259+831736480+834425512+837045289+837203192+835907273
606+836116522+838437807+839376828+836535541+833227901
##END=
