##TITLE=<SNM>
##JCAMP-DX=4.24
##DATA TYPE=INFRARED SPECTRUM
##DATE=3/5/2025
##SAMPLING PROCEDURE=Instrument type and / or accessory
##ORIGIN=Admin
##XUNITS=1/CM
##YUNITS=ABSORBANCE
##RESOLUTION=4
##FIRSTX=4497.3318
##LASTX=599.83466
##DELTAX=-1.4281778
##MAXY=1.7073525
##MINY=0.17644291
##XFACTOR=1
##YFACTOR=1.5900959e-09
##NPOINTS=2730
##FIRSTY=0.20027688
##XYDATA=(X++(Y..Y))
4497+125952702+126081894+126084640+125878979+125678809+125738579+125799642
4487+125410886+124799975+124902468+126246481+128097806+129082535+128627899
4477+127408720+126402250+126033183+126238028+126679845+126727169+125865737
4467+124390939+123270599+123191253+124051354+125263982+126114909+126035619
4457+125123226+124274343+124262338+124774654+124792131+123856873+122672180
4447+122347607+123118035+123964867+123712162+122392477+121138906+120844836
4437+121381030+122025612+122259565+122096852+121871436+121813250+121824796
4427+121647342+121153291+120465414+119813570+119217259+118424978+117360443
4417+116472415+116371984+117187441+118442642+119502520+120019362+119982046
4407+119440266+118376013+116963037+115707170+115042562+114910146+114955606
4397+115073599+115512239+116321688+116931044+116682284+115735349+114959120
4387+114905367+115305022+115522669+115140960+114144151+112833968+111638892
4377+110963685+111087086+111938312+112967714+113599898+113879573+114304886
4367+114984891+115362411+114898001+113718322+112464301+111770436+111904398
4357+112628457+113440540+114073820+114563889+114903230+115090346+115373413
4347+115856744+116073238+115584060+114740808+114290145+114458743+114782857
4337+114735035+114364094+114212477+114594223+115211900+115610281+115700835
4327+115694116+115784670+115986479+116139034+116124611+116047964+115972038
4317+115638750+114846141+113904079+113366779+113531450+114354591+115480798
4307+116291757+116412299+116134058+115961037+116027572+116248574+116537752
4297+116619581+116223506+115698595+115862095+117014682+118510518+119448691
4287+119502445+118948923+118174972+117458981+117008113+116812095+116664216
4277+116609948+116994393+117834346+118678844+119288527+119874417+120553457
4267+121089444+121234502+121015899+120692863+120511652+120477606+120461797
4257+120500743+120786538+121388471+122109662+122559650+122451431+121954006
4247+121557088+121485051+121569617+121697263+121926427+122203506+122418501
4237+122663427+123019731+123197897+122820911+122053866+121533669+121584808
4227+121939275+122314152+122703227+123012197+123085236+123130715+123478059
4217+124007900+124382037+124525126+124437308+124041664+123555616+123452298
4207+123885211+124595176+125277805+125693616+125726687+125579915+125566486
4197+125670581+125663000+125493015+125234725+124947638+124838125+125113930
4187+125486287+125364948+124775319+124455310+124804220+125414466+125835412
4177+126130100+126469367+126785580+127042108+127428709+128165860+129263803
4167+130407909+131033504+130716269+129586605+128291313+127568575+127794768
4157+128713721+129620491+130001300+129941952+129805470+129742186+129688292
4147+129583147+129407492+129162322+128881466+128572581+128192877+127820764
4137+127786634+128404536+129495048+130358363+130437560+129906642+129383680
4127+129241331+129411597+129644275+129797795+130019453+130556115+131277541
4117+131722759+131774553+131847387+132245205+132752460+133016898+133007255
4107+132930120+132916026+132993610+133216158+133516160+133614811+133441405
4097+133368094+133656260+134005254+133949598+133363240+132492053+131879680
4087+132073299+132987126+133892321+134316697+134479448+134683216+134881446
4077+135003168+135091624+135007835+134561737+133939927+133501569+133287277
4067+133197388+133370325+133906987+134522012+134843623+134847119+134841458
4057+135153858+135785301+136362269+136592221+136636603+136763667+136915256
4047+136968607+137069488+137344599+137600144+137592459+137319297+136883038
4037+136372521+135985058+135993361+136479822+137228124+137872312+138112094
4027+137947948+137769903+137987579+138489989+138782540+138721524+138690955
4017+138957239+139269170+139282158+139038066+138804188+138664528+138511018
4007+138345691+138397289+138932705+139999648+141274220+142150684+142193341
3997+141616814+141115771+141074697+141206888+141153678+141086299+141421330
3987+142214221+143097403+143632754+143575880+142994994+142293726+141995871
3977+142339289+143109005+143900509+144416985+144457347+143874007+142786747
3967+141726092+141367895+142062931+143539810+145058334+145969771+146117911
3957+145708698+145072953+144640442+144841999+145808079+147107439+147947701
3947+148027010+148024742+148642475+149461080+149475184+148535577+147444166
3937+146981311+147552113+149154491+151008084+151731890+150803228+149446592
3927+149179390+150025050+150760252+150722167+150613526+151237201+152258581
3917+152498278+151219892+148985931+147075998+146314613+146772483+148381692
3907+151358839+155673290+160225423+163218708+163758903+162208732+159147881
3897+155514213+153069952+153215974+155378827+157023104+156584586+155900336
3887+157164103+159565632+160762545+160809382+161203630+161067166+158903760
3878+156349696+156004582+158077255+161330198+164877810+167394398+167233344
3868+165395027+164400195+164419107+163628268+161523114+159725655+159790523
3858+162417748+167996388+175526212+179711142+175730842+168006677+162164856
3848+159763965+160256423+162415124+165216636+168490795+172371873+175853793
3838+176911842+175163395+172479530+170232064+168422029+167038535+166572597
3828+167051899+168092012+170323040+174850564+180208774+182378271+180897822
3818+179132637+177585278+174183370+169511660+166491724+166942386+170662635
3808+175349414+178436505+180632578+184035798+187339121+187367253+184872574
3798+182501465+180314481+177769367+175981860+176010555+177322509+179017390
3788+181142580+183969900+186945566+189572792+192448018+195943300+198879233
3778+200173775+200808602+202770938+207360369+214414096+221996137+227985143
3768+232706089+237705324+243009592+248308707+254797930+263502532+273120829
3758+281515206+289092317+298512525+311898040+328379922+342950204+352010201
3748+359029480+368518829+379876952+388038585+392380428+397950202+408240529
3738+423762291+442162184+458366510+468129274+471884253+473363708+475686387
3728+479533166+483649537+486687654+488680990+490287744+491949114+494388446
3718+498445853+504744822+514250852+527148893+539768235+546591468+548225923
3708+549747624+553746930+560305631+568217839+574674282+577467884+577843708
3698+578685245+581783975+587287851+594386410+602388769+610166781+614417198
3688+612626843+607797134+604922564+605981813+609425179+612624818+615104110
3678+617827615+619295375+617277974+615071873+617266653+622168970+623525475
3668+620026182+617106180+618390639+622232432+624730204+624883779+625301399
3658+628027716+632362399+637254558+643584714+652480489+662681265+668541960
3648+665066206+656693046+651219046+651109740+653768097+656220136+658458512
3638+661666473+665696253+670476932+677398900+687115895+696619526+699361474
3628+693420862+686538627+684553800+687577560+693957871+701253264+706058758
3618+706846691+705704600+704897175+705167516+707100614+710401913+712028459
3608+709588190+705568530+703966799+705699277+709117229+712331637+714636661
3598+716509558+718138578+718700178+718114738+718163169+720325000+723178878
3588+722960716+718557510+714069664+713304671+715513358+717219298+716519004
3578+714461006+712544177+711140591+710688222+712035656+715330132+719720068
3568+723413384+724266316+722041660+719052761+717889603+719201126+721188653
3558+721680380+720907816+720933605+722337416+723362029+722990329+722536761
3548+723118977+723737628+723535210+723837788+725648011+727531179+727629614
3538+726263888+725445742+726434145+728395731+729327982+728159126+726228727
3528+726408055+730144179+735527016+738722531+737564997+733146122+728202909
3518+724921253+723888843+724409658+725264465+725093533+723105257+720388874
3508+719619008+722518168+728348126+734586893+738444618+738923376+737534034
3498+736095062+734328997+730965549+726337958+722070373+719366810+718621234
3488+719840994+722616829+725662180+727011413+725434272+722308103+720440528
3478+720857286+722658437+724591460+726049099+727631788+730203480+732961247
3468+734252603+734625728+736138845+738530009+739406931+737932124+735051482
3458+731413044+727873191+726312619+727676695+730295093+731580452+730925515
3448+729805165+729478296+729952781+730607642+730948306+730928663+730813660
3438+730772501+730705478+730392404+729361643+726922873+723169807+719731388
3428+718820204+721435603+726397409+730717099+731756856+730030749+728356972
3418+728618992+730263981+731543491+731511704+730540919+729408050+728239644
3408+726576662+724444219+723072196+724319245+728717952+733739284+735465315
3398+733088620+729618115+727413101+726008991+724649937+724027537+724774387
3388+726191467+727229425+727708033+728017583+728243393+728118718+727406504
3378+726437593+726484524+728685490+732077652+734072600+733475315+731466872
3368+729425518+727751365+726915376+727295998+728348051+729311039+730178890
3358+731237389+732310433+733006678+732867309+731638328+730316759+730751810
3348+733347042+736134272+736909460+735912286+735125177+735372353+735774041
3338+735640145+735324822+735348737+735763546+736073921+735560677+734190528
3328+732770523+732012878+732087173+732820753+733591518+733821601+734163538
3318+735611732+737200568+736881646+735196323+735227436+738272337+742107946
3308+743802415+742540522+739377318+735770518+732636027+730094324+728165424
3298+727456059+728489069+730636281+732547413+733538815+734032491+734704671
3288+735462017+735394019+733904967+731757455+730763655+732387652+736344412
3278+740481025+742833954+743717624+743873936+742211779+738350681+735125402
3268+735439601+738258693+740355675+740665376+739957360+738097882+735125477
3258+733122507+733961945+736427179+737899662+737984978+738145413+738693518
3248+738514490+737294355+736161710+735956368+736353708+737121625+738719383
3238+740857298+742108846+741287551+738524836+735183953+732690980+731417467
3228+730531848+729306091+728308391+728721775+730816359+733411741+734701072
3218+733523521+730189386+726482050+724529310+725107103+727185193+729233820
3208+730463625+730793718+730408298+729780575+729647128+730393229+731237389
3198+730345098+727223577+724496773+724733528+726617671+727054745+725800349
3188+724825816+724714486+724666880+724573168+724817869+725043304+724541530
3178+723409185+722428205+721834293+720893496+719038817+716685137+714604649
3168+713286978+712692242+712202014+711609452+711702490+712651084+712969106
3158+711514166+709313200+708063377+708172908+708906713+709117229+707837718
3148+705317531+703111092+702377962+702720799+703299867+704159846+705454501
3138+706142874+704877533+701978748+699220456+698090585+698801449+700206760
3128+700581909+699394686+697863426+697155486+697208265+697627121+698193819
3118+698171103+696658436+694153692+692392875+692005131+691656671+690163571
3108+688342777+687847676+688937963+690334202+690709876+689652126+687999265
3098+687317564+687982322+688376214+687126541+685313395+684992299+686371669
3088+687728174+687696087+686565167+685215334+683636469+681082020+677724270
3078+675136235+674586855+675692736+676894653+676780024+675242167+673664501
3068+673450912+674215230+674001266+671787405+668985631+667648694+668137572
3058+669205518+669845011+670140542+670330366+670116402+669094488+667188753
3048+664662044+662217276+660804994+660701535+661023756+660551671+658894986
3038+656682476+654855010+654059880+654391921+655363381+656261895+656662684
3028+656500974+655703969+654244230+652548787+651071955+649464226+647102376
3018+644516815+643234080+644014891+645955636+647342729+647179145+645938918
3008+644843683+644422652+643918555+642264345+639476290+636742814+635120841
2998+634472726+633864720+632704637+631284032+630476382+630927401+632280982
2988+633445864+633845228+633724677+633149433+631797051+629812299+627841154
2978+626139412+624389578+622489879+620951422+620491182+621391870+623165770
2968+624815444+625563081+625480465+625270961+625295589+624997321+623726057
2958+621790260+619802996+617733078+615398179+613072801+611120998+609825818
2948+609562824+610213263+610684073+609826081+607482972+604354217+601442162
2938+599587483+598905632+598803598+598795314+598895811+599171325+599389562
2928+599107826+597902235+595865229+593870768+592782055+592590357+592657943
2918+592570190+592403120+592155982+591330114+589441098+586918362+584938895
2908+584206964+584379282+584677137+584531058+583712912+582359744+580802132
2898+579139750+577191133+575050818+573364821+572669063+572698414+572728514
2888+572489398+572271498+571994147+570865550+568488818+565660954+563487278
2878+562285061+561753899+561616030+561665285+561582781+561067588+560076636
2868+558890275+557925338+557343759+556874410+556197432+555381385+554694736
2858+554149068+553485022+552514387+551210099+549563048+547649180+545643361
2848+543681887+542083567+541488681+542077119+542862166+542586052+541184078
2838+539583471+538380842+537576041+537226943+537450654+537857478+537638528
2828+536352832+534408151+532749668+532009640+531872595+531428136+530120737
2818+528149141+526117271+524677099+524195718+524304237+524158270+523443320
2808+522577830+521824533+520896256+519528468+517892926+516396677+515342263
2798+514712254+514224537+513692776+513183731+512696876+512019224+511007580
2788+509728969+508309489+506866919+505540927+504430961+503468685+502370189
2778+500852236+498994820+497285882+496199344+495765380+495534923+494908175
2768+493630051+492095905+491003856+490519963+489994162+488778788+487125178
2758+485846716+485194591+484536955+483270864+481675993+480517970+480011399
2748+479570314+478557096+476944344+475157137+473577110+472344980+471401522
2738+470604479+469893390+469262856+468507385+467259249+465497832+463769326
2728+462657485+462174080+461839114+461279464+460538312+459752103+458786641
2718+457455439+455947270+454682078+453772806+452935355+451917789+450765090
2708+449655910+448661248+447717040+446798659+446027556+445454524+444843332
2698+443960112+442956078+442095011+441282001+440279166+439180445+438252356
2688+437472556+436544692+435297193+433934391+432897745+432398783+432117009
2678+431593269+430832625+430127383+429418393+428379536+427092153+426068777
2668+425560219+425276870+424841595+424176837+423386955+422531361+421601060
2658+420582182+419522670+418584385+417957711+417663530+417506918+417247184
2648+416716773+415783885+414401515+412820551+411600791+411162142+411288616
2638+411255405+410548776+409319158+408076045+407155003+406541936+406037727
2628+405520509+405057983+404708398+404322716+403744661+403067833+402454054
2618+401873638+401272604+400783238+400506824+400261111+399778942+399039139
2608+398214133+397403784+396610940+395862853+395189436+394588478+394079095
2598+393630513+393068838+392294737+391523260+391030520+390766776+390494710
2588+390185947+389988701+389904772+389804163+389671691+389525462+389196382
2578+388532486+387731396+387140521+386833032+386623191+386328560+385848453
2568+385187968+384519612+384082950+383989275+384160243+384385490+384443367
2558+384269550+383979828+383666867+383263491+382694507+382077318+381608569
2548+381287773+380957718+380619829+380463741+380555879+380730334+380800206
2538+380690638+380409951+380066626+379881638+380028167+380420934+380730484
2528+380669084+380257799+379756813+379374804+379144159+379021546+378946989
2518+378779131+378357613+377764001+377359202+377377869+377636365+377801037
2508+377738549+377457375+376991212+376508144+376250959+376218048+376105818
2498+375660084+374948395+374239518+373719189+373381787+373143271+372975338
2488+372895795+372867719+372775431+372533391+372205248+371972616+371964744
2478+372147596+372390948+372596141+372730487+372807893+372889498+373011661
2468+373028904+372670736+371903831+371091420+370630206+370551525+370575065
2458+370445705+370170153+369982204+370052488+370203740+370004320+369248436
2448+368310263+367853547+368117066+368633945+368763531+368339426+367680254
2438+367174132+366975424+366947611+366835381+366522232+366063791+365565166
2428+365187955+365106313+365275670+365422499+365357125+365111111+364784617
2418+364484775+364379405+364614473+365137463+365648645+365792700+365484611
2408+365004467+364684120+364574177+364515176+364443167+364486950+364775134
2398+365202762+365444540+365292613+364925223+364680672+364638426+364580737
2388+364263577+363563583+362471947+361050855+359290750+357022237+354136909
2378+350818255+347334630+343683747+339708357+335567059+331813055+328830454
2368+326360384+323898036+321515119+319885836+319489058+320304355+322386081
2358+326118793+331562918+338121620+345284429+352922584+360341378+366000629
2348+368564748+367900403+365310456+362532148+360150317+357668440+354627549
2338+350836435+346329809+341599660+337424025+334388383+332702910+332204398
2328+332377466+332621043+332666062+332704035+333086231+333939501+335120426
2318+336439071+337740098+338838332+339638335+340323822+341209629+342409597
2308+343792304+345172836+346410139+347398129+348075445+348447595+348603233
2298+348710215+348944046+349381195+349936834+350398349+350582512+350510279
2288+350399548+350473056+350763265+351057521+351071841+350761540+350400261
2278+350271650+350368436+350460311+350379531+350177338+350015140+349951191
2268+349886642+349692320+349322494+348877323+348605069+348697620+349031760
2258+349280361+349277324+349108829+348915107+348786946+348774876+348867801
2248+349024263+349236241+349474308+349636355+349680850+349736740+349950216
2238+350279709+350541766+350629144+350628844+350723643+350991248+351325126
2228+351576050+351713395+351795112+351856363+351895235+351939654+352098703
2218+352482436+352989757+353314752+353358947+353446436+353884073+354549506
2208+355156986+355655461+356119525+356507494+356752983+356929124+357166366
2198+357507067+357930459+358427959+358969129+359487284+359997154+360636759
2188+361510121+362561386+363597282+364335360+364551761+364349380+364160981
2178+364353990+364942729+365723540+366530066+367313426+368092026+368883558
2168+369688059+370542753+371554059+372837244+374445348+376361353+378535554
2158+380939388+383608315+386617231+389966810+393499728+396998797+400361045
2148+403553637+406448037+408922492+411090021+413185279+415319784+417579001
2138+420177569+423242900+426584757+429894152+433099189+436418930+440083532
2128+444038493+447971150+451611949+454881760+457715097+459902792+461207568
2118+461564500+461093014+459897357+457942068+455234981+452085159+449023277
2108+446403492+444139215+441901102+439531866+437123159+434742604+432334684
2098+429830428+427083457+423845583+420069913+416004634+411831286+407558303
2088+403314071+399334558+395668044+392249455+389196082+386715292+384772485
2078+383102868+381565274+380279915+379328923+378516999+377621146+376714648
2068+376020764+375579529+375248387+374903189+374479759+373927156+373282078
2058+372717779+372373030+372162590+371896972+371547500+371254930+371159793
2048+371341520+371776757+372284304+372715268+373214192+374076871+375414745
2038+377172377+379342530+381933001+384814356+387771842+390653234+393349488
2028+395663808+397308010+398054410+397865748+396922740+395539283+393928106
2018+392016524+389644440+386949235+384344557+382103445+380150892+378271810
2008+376395239+374635209+373100800+371738373+370424376+369144565+367960941
1998+366910051+366103675+365744419+365775419+365691341+365002742+363751832
1988+362363915+361264782+360721625+360673794+360678255+360328446+359687978
1978+359105725+358761950+358563243+358315730+357950401+357687482+357837834
1968+358307033+358548024+358213321+357558796+357002295+356638166+356358491
1958+356148088+356047291+355978394+355786883+355449219+355148740+355084903
1948+355309925+355863615+356810747+357827601+358101278+357216971+355778787
1938+354623163+353989331+353727011+353740056+353967739+354250638+354419920
1928+354495677+354747951+355373200+356125597+356658783+357094320+357574203
1918+357577651+356623585+355311237+354670469+354968737+355668618+356078329
1908+355880633+355275926+354696484+354387271+354317511+354383747+354562175
1898+354878248+355226821+355371625+355396365+355823619+356758230+357356340
1888+356852543+355654187+354663572+354225748+354172182+354253150+354283662
1878+354189575+354036262+354037161+354659074+356468509+359377678+361956267
1868+362279387+360192563+357525210+355843935+355355807+355510957+355742801
1858+355710339+355358655+354908424+354684976+354955955+355814772+357203814
1848+359213831+361952593+364517162+364937593+362757057+360040449+358571152
1838+358374019+358652682+359099165+360316675+362883419+365984173+367706943
1828+367490842+366633862+365835695+364633703+363104842+362149464+362179902
1818+362735803+363278885+363877182+364969568+366555781+367867454+368160286
1808+367688500+367451783+368275177+370332126+373033627+375207491+375992426
1798+375892266+376484078+378959696+382829678+385626654+385238648+382985990
1788+381705805+382372587+384111850+386008851+387941911+389769077+391102154
1778+392313629+394669258+399074000+404829775+409365002+410509792+409095335
1768+407116356+405802096+406152843+408619427+411994083+414384122+415739390
1758+417203514+418853114+420513622+423165793+427612481+432674335+435929901
1748+436572806+435996887+435830117+436951403+439417800+442312349+444411430
1738+446209283+449913694+456170267+461479521+462006072+459618582+457487338
1728+456462313+456771263+458552773+461361406+465133291+471007705+479784053
1718+489325394+494596413+493730773+490445556+488353821+488676117+491525872
1708+496577642+502568559+507798532+512637088+519420249+528465927+535994701
1698+539367858+540124491+539140699+537213486+536958326+539907641+545376806
1688+552665189+562601771+574687252+583050816+583306838+580559305+580428032
1678+584390677+591477692+599143549+605312595+610891290+617317520+622957241
1668+625396873+626538852+630024614+636299742+642536261+646441291+649330555
1658+654034465+662499388+675425094+689841575+697267566+697545554+699582860
1648+705621908+710818070+710410834+707170486+705989711+708329895+713932094
1638+722099837+730038846+732092046+727037652+721074324+718644025+719625531
1628+721873577+723833965+725282458+725403909+722882597+719001856+716699157
1618+716395904+715033776+710247849+704159396+699382691+696051704+693150070
1608+690155324+687350026+684972207+682751374+680453098+678454176+677483991
1598+677816632+678832474+679493334+679206049+678065607+676486592+674900005
1588+673495144+672107752+670612103+669223511+668349737+668690850+671230529
1578+675947559+680004178+679837445+677424090+677552364+681138548+685215709
1568+687270108+688627963+691531546+696923604+705979065+720459796+738198717
1558+748430830+747944126+746651345+749460316+755686414+763701293+772358214
1548+781218229+790842336+802004226+814453273+826879529+836036199+836752761
1538+830881796+826542914+826560832+828284239+828436503+827543387+828375703
1528+831774837+836529126+841700398+847633963+853901145+858387567+860351403
1518+861150731+861122093+860185944+860173424+863507559+870804452+880565829
1508+889221551+891188835+885688146+879916065+878022776+879329576+881934104
1498+883866678+884006272+883408612+884264768+887317466+891202854+893335372
1488+892205277+889216603+886977403+886777008+888065140+889738168+891690159
1478+894615708+898854729+904137332+909245929+911512868+909598287+906113612
1468+904021953+903568685+903137608+901952635+901871217+905323880+912522037
1458+919960398+921392397+915922745+909385597+905510030+904704404+905726543
1448+906433434+905565433+903868115+902583431+902262335+903427367+906722967
1438+911426127+914341331+913009266+909900341+908685829+909704144+910677553
1428+910261845+909814425+910939048+913468307+916516957+919678736+921849639
1418+920985461+917332629+913495821+910878997+909053256+907200226+905189159
1408+903583904+902804367+902589504+902697685+903542895+905242013+906856789
1398+907477689+907184932+906088872+903903426+901061693+898540906+896466939
1388+893909567+890317835+887074713+886342333+888501390+892003233+895480560
1378+899142539+903634509+908297635+911462863+912545877+912908582+914068291
1368+916086255+918166144+920102990+922109034+923678304+924102933+923888519
1358+924201069+925456664+927357450+929515608+931429814+932543191+932856565
1348+933023598+933600791+934721066+936532788+939136941+941902280+943551317
1338+943420495+942242268+941399532+941872817+943640082+945629482+946720819
1328+946972642+947330923+948474664+950554028+953169577+955063541+955141735
1318+954066592+953298000+952994522+952583163+952320243+952641864+953159381
1308+953364424+953206387+952717659+952024862+951383495+950792432+950276940
1298+950151665+950216289+949538636+947770022+945762104+944387231+943535349
1288+942499715+940898733+938981454+936997451+934602464+931383407+927829236
1278+925125447+923815798+923117829+921746105+919112938+915611620+912060972
1268+909182654+907316279+906233939+905287669+903824707+901547347+898619249
1258+895433629+892203702+888857197+885473132+882638446+881101039+881053658
1248+881759499+882105335+881807405+881646895+882119880+882535588+882218315
1238+881863483+882547283+883991203+885039356+885569019+886566043+888352800
1228+890179891+891599895+892858414+893996457+894941302+896137596+897801703
1218+899254394+900091732+900999617+902508086+904179090+905702777+907544712
1208+910080118+913146536+916647779+920624556+924482655+927029532+927781105
1198+927664527+927944539+928996067+930523803+932488163+935148169+938264892
1188+940993570+942889483+944479444+946391626+948424734+950047757+951442946
1178+953337285+955888734+958259207+959392226+959216122+959043467+960402071
1168+963315850+966158407+967459060+967307695+966820616+966988474+968348652
1158+971307038+976142070+982396582+988342367+991905460+992709437+992464661
1148+993117498+995015660+996685090+996304767+993786979+991031387+990023117
1138+991265368+993776783+996378688+998606942+1000311607+1001329473+1001902993
1128+1002971838+1005339237+1008586032+1011278050+1012426589+1012815607
1120+1014196102+1017206668+1020451289+1021748642+1020705437+1019699191
1111+1021602376+1026586298+1031977757+1035273732+1036128539+1035158278
1103+1033376844+1033397236+1037232620+1042066077+1042266247+1037084554
1094+1032255595+1033147062+1039605566+1046839784+1050000664+1048425847
1085+1045399838+1044267643+1045815621+1048825361+1051889605+1054291939
1077+1055292487+1054041240+1051469474+1049997815+1050485794+1051788545
1068+1053140177+1054399596+1054682157+1053565706+1052426314+1052630457
1060+1054192679+1057067099+1061734049+1067579225+1071859554+1071695445
1051+1067980838+1065278849+1066580326+1070329419+1073235252+1073741823
1043+1071900263+1068569801+1065481043+1064369240+1065652874+1068146896
1034+1069953295+1069859958+1068387550+1067366685+1068019223+1069676507
1025+1070343064+1068622805+1065125461+1061568515+1059033259+1057621876
1017+1057394268+1058754896+1061714406+1065204254+1067516250+1067699551
1008+1066345595+1064269530+1061142611+1056822622+1053264927+1053208850
1000+1056517945+1059648387+1059819393+1057810350+1055925458+1054873481
991+1053178412+1049393333+1044387295+1040494634+1038724895+1038143504
983+1037723523+1036840602+1034428672+1030413810+1027328725+1027441330
974+1028848814+1027277970+1021482424+1014070078+1008085083+1004946620
965+1003957392+1002272744+997076957+988993331+981607749+977593712+976651490
955+976598712+975617281+973655694+971933262+971139106+970382585+968242120
945+964774089+961816527+960878129+961245856+960899571+959200678+957602171
935+957416096+958212500+958874335+958963024+958444682+957144705+955199836
925+953410455+952647112+952974281+953634315+953981801+953968831+953707486
915+952980353+951559749+949593514+947407917+945405247+944157599+944111867
905+945065634+946432110+947920786+949276242+949617280+948117957+945428638
895+943388933+943064088+943723373+943998663+943464952+942492068+941170499
885+939549725+938431550+938473158+938965260+938711037+937607856+936320323
875+935017197+933666615+933025922+934144473+936581968+937895665+936174207
865+932380581+928827234+926476404+925072518+924865452+926436295+929141058
855+931137506+931253409+930345974+930356470+932080177+933984862+933727265
845+931049117+928092380+926905007+927769634+929815112+932295941+934765823
835+936399566+935879051+932741411+928570688+925505095+924008171+923548006
825+924607030+928107749+933247608+937910509+941064342+943033800+943909898
815+943293871+941438142+939455413+938256945+937923254+938260394+939488925
805+941673397+943784774+944399676+943653726+943444185+944648501+945494162
795+944470148+943505361+945478118+949441100+951419855+949976985+947659816
785+946660243+946477466+945925163+944762681+943151878+941546173+941091781
776+942597401+945479243+948233711+949195499+947099941+942440264+937959764
766+936212891+937151664+938856179+939823515+939875095+939456013+939149836
756+939673351+941452011+943861768+945426614+945291743+943930065+942307342
746+941409428+942258837+944942083+947708022+948087519+945679262+943095201
736+943038448+945259431+947259402+947801659+948112334+949467115+951526462
726+952821192+951712763+947817628+942885585+939269563+937552378+936627850
716+935585169+934336845+933210198+932554961+932623184+933468919+934502829
706+934672635+933697802+932945030+933668189+934803758+934212770+931444508
696+927924672+924951292+922931979+921945600+921389848+919634204+915889609
686+912042155+910299555+909753774+907700949+903736468+899753693+896661186
676+893509977+889584030+885434748+881004778+875738744+872760641+876934813
666+884479481+888318539+887193916+883491603+879053912+874277731+869611906
656+866215321+865452578+867630003+870785560+871895414+870296231+868054857
646+866720468+865679362+863443385+859141764+852890251+846668127+844419930
636+848899380+857584789+863388582+861752815+854887299+847806244+843541283
626+841162714+838131607+834374417+831694769+830337889+828503002+825283195
616+821975600+819796825+818665455+818386492+818903559+819895711+821331084
606+823033050+823373863+821672796+820632589+823140332
##END=
