##TITLE=<SNM>
##JCAMP-DX=4.24
##DATA TYPE=INFRARED SPECTRUM
##DATE=2/5/2025
##SAMPLING PROCEDURE=Instrument type and / or accessory
##ORIGIN=Admin
##XUNITS=1/CM
##YUNITS=ABSORBANCE
##RESOLUTION=4
##FIRSTX=4497.3318
##LASTX=599.83466
##DELTAX=-1.4281778
##MAXY=1.7338867
##MINY=0.2822718
##XFACTOR=1
##YFACTOR=1.6148078e-09
##NPOINTS=2730
##FIRSTY=0.29465023
##XYDATA=(X++(Y..Y))
4497+182467671+181700285+181903002+182817978+183831839+184515823+184742200
4487+184662435+184683936+185129548+185896195+186646454+187055007+186739526
4477+185530663+184160718+183981662+185415647+187234340+187939752+187379199
4467+186406660+185539004+184673213+183820433+183429413+183800187+184529296
4457+184925594+184819327+184516746+184152579+183688900+183363601+183502627
4447+184016967+184533338+184796626+184661678+184068957+183329513+183115003
4437+183869636+185255212+186302109+186251669+185251613+184123475+183518240
4427+183427346+183418211+183208407+182973061+182993509+183098651+182816612
4417+182164205+181747513+181872440+182180538+182362769+182551884+182780051
4407+182685116+182046107+181190928+180623989+180491810+180604260+180765858
4397+180796439+180307770+178939044+177109167+176118910+176982782+179285419
4387+181558159+182756521+182969074+182648131+181809063+180370593+178794592
4377+177876921+178002531+178839033+179748121+180382460+180725237+180680113
4367+180171789+179675037+179826447+180311572+180029773+178666878+177170938
4357+176390633+176226654+176315168+176564134+176775359+176612784+176189171
4347+175940407+175835985+175480880+174977706+174850325+175120275+175285878
4337+175163535+175016425+174984829+175025524+175145523+175212701+175009486
4327+174802100+175171896+176029290+176555848+176391039+176155619+176485440
4317+177130132+177365331+176998082+176571018+176594476+177013456+177499245
4307+177834529+177974220+178090546+178477376+179168429+179815890+179969792
4297+179324453+177992251+176701537+176313617+177043243+178390561+179613192
4287+180052067+179486678+178401855+177541619+177159218+176905527+176419774
4277+175954895+176271040+177687936+179463719+180546383+180724388+180514289
4267+180218186+179782024+179370924+179313398+179398091+178990480+178093129
4257+177584547+178186570+179726620+181436794+182624544+183180502+183521304
4247+183836822+183633459+182457594+180745464+179478945+179242307+179832353
4237+180581357+181027522+181265138+181505615+181591379+181277190+180693751
4227+180255448+180280031+180725237+181251241+181667121+182086857+182352379
4217+181863747+180633844+179755909+180015488+180817220+181239060+181330674
4207+181639050+182255800+182883089+183198847+182960917+182310687+181867715
4197+182010709+182347008+182319214+181903224+181391762+181018608+181030641
4187+181605423+182524607+183329716+183753993+183731514+183333832+182921606
4177+182872957+183064748+183161179+183331838+184012040+185024037+185571985
4167+185254585+184700158+184869692+185832302+186655368+186599392+185885878
4157+185111516+184571135+184354927+184468780+184675502+184697538+184583943
4147+184496039+184311556+183870836+183405218+183249563+183327741+183389844
4137+183546773+184091528+185010767+186013352+186734451+186758646+185904186
4127+184654130+183871186+183895714+184226697+184220662+183889420+183815653
4117+184405108+185517338+186732660+187639718+187942816+187674212+187269055
4107+187109691+187074939+186840054+186449588+186137503+185776547+185127684
4097+184473080+184342894+184752979+185335143+185974668+186635030+186856682
4087+186200344+185037380+184290369+184472785+185313643+186135380+186389902
4077+186047993+185577189+185409778+185527913+185680153+185757446+185780349
4067+185790924+185903411+186186096+186465736+186533948+186490393+186635676
4057+187074939+187523762+187528283+186992387+186468412+186686650+187752261
4047+189006341+189689698+189581012+189005990+188423437+188072688+187890143
4037+187672883+187393077+187351958+187900977+188982441+190058165+190570733
4027+190455810+190133722+189989860+189973749+189810379+189474431+189239620
4017+189257780+189278838+188966735+188389719+187971237+187996466+188361353
4007+188751616+188963837+189179658+189848343+191033103+192068907+192319960
3997+192051172+191986282+192270701+192507247+192582436+192760514+193101667
3987+193398286+193536943+193463748+193080941+192550914+192349341+192790412
3977+193839468+195277864+196608111+197154656+196789936+196187248+195979862
3967+196175252+196657812+197584340+198864239+199839768+199972889+199505223
3957+199094732+199102317+199479329+200209047+201523071+203302195+204504451
3947+204211265+203186035+202951113+203536342+203605144+202633805+201473185
3937+201149916+202409938+205535660+209388350+211387355+210121778+207432882
3927+206200876+207081376+208412896+208923286+209447021+211208963+213596053
3917+214466994+212497130+208701450+205232194+203370259+203184614+204753584
3907+208887501+215949812+224175586+230219331+232166697+230335121+225471911
3897+219139797+214465277+214066321+217523046+220961406+221018194+219779913
3887+221216685+224963181+227243967+227345731+227557159+227050127+223659825
3878+219958471+220246342+224707201+230411675+235484708+238923013+239014461
3868+236605482+235085974+235021194+233320119+228578771+223798722+222561012
3858+226545993+236478342+250991105+260683420+254854739+240315141+228164866
3848+222286651+222509466+226955671+233239283+239919304+246655099+252213865
3838+253873010+250937787+246053315+241336366+236966973+233216952+231245391
3828+231514917+233425205+237359119+244659010+253443418+257644569+255920424
3818+253093129+250020781+243832492+235779205+230423432+230430629+235554101
3808+242511695+247227408+250592352+256465733+263338689+264830219+260681814
3798+256270730+253035935+249547560+246442213+245607095+247327585+250697420
3788+255168744+260294873+265163602+269814277+275910528+284021729+291661056
3778+296582070+300430699+306248344+315402344+327642941+341092382+352547433
3768+360468965+365965057+370432947+375473775+383219757+393923995+404512996
3758+412183642+418853476+428958385+445149708+465687927+483092782+492244125
3748+498548611+508001999+519048921+524562472+524023161+524622969+531483155
3738+545722645+563787438+577289737+579895711+574476838+568996360+568837014
3728+574371936+581746369+585968098+585727695+582968945+578856510+574347943
3718+572199965+574844991+581727655+589826694+595449096+596040858+592139076
3708+586788710+583713077+585264938+589795504+592124606+589696249+586210974
3698+585979910+589942854+597368262+607687699+619964949+630686277+633385895
3688+625857541+614782234+607302345+606116459+610768648+619153085+629218905
3678+638836069+643154099+638975446+633372976+633914538+637454996+634659556
3668+624337387+614587933+610342249+610717452+612771012+615214798+619182134
3658+625194246+630891282+634414834+638726073+647982466+660594833+666393966
3648+657725349+641844265+629158149+623517808+624384929+629071703+633935430
3638+636655054+637681336+638737220+641186580+646168054+653556587+659226457
3628+657988231+652045734+647340209+647096742+652043963+660525070+668662460
3618+674041986+677770469+680291437+680205507+678456502+678674870+681483302
3608+682644236+679648737+676096985+676342224+680423210+685473044+689596478
3598+692776460+695056028+696040821+696256457+697796174+702659163+709368824
3588+711941910+706916955+699278458+695219397+695852499+698306953+699351690
3578+698743761+698566365+699597519+700948177+703195115+708271747+715390532
3568+719678000+717414452+711397764+706822757+705296549+704854573+703175183
3558+700155766+697784215+698014911+700805921+704155030+706330287+707315301
3548+707090142+704608744+699925218+695175399+692569166+692974526+695899746
3538+699384246+701308136+701708771+701834048+701384100+699526428+697725895
3528+698165656+700231434+701546435+701486565+701303707+701932011+703241550
3518+704666473+705321058+704416805+702280896+700188321+699041044+698535360
3508+697755793+696163662+693483754+689587767+685934730+685696653+690313812
3498+697184185+702160565+703840029+703774253+703250777+702190685+700564374
3488+699045179+698502730+699751292+703097743+707092948+708456820+705183157
3478+699023549+693425213+690371468+689806725+690807095+692397750+693514981
3468+693283990+691920782+690665798+690372280+690555360+689718064+686827984
3458+682789667+679921364+679949564+682507738+685607696+687626449+688517635
3448+688994086+689070714+688299711+687344446+687616999+688984932+689349320
3438+687149038+683276379+679897888+677983669+676718276+675413019+674981304
3428+676245885+677908370+678500870+678853225+679813878+679810630+677530472
3418+674690591+673552542+673813800+673729864+672589083+670870272+669167850
3408+667863626+667262046+667262710+667175969+666343176+664970666+664238789
3398+665151384+667245805+668836903+668762342+667244919+664763668+661818516
3388+659528835+658930429+659974575+661761451+663254882+663646215+662791571
3378+661433014+660415813+660090108+660488011+661280792+661804268+661720553
3368+661319992+660880969+660574384+660826931+661469630+661374252+660404887
3358+660348782+662202098+663793122+662333945+658388128+654989115+653816960
3348+653932861+653493543+651677729+649110696+647080944+646564555+647552966
3338+649130111+650438248+651562270+652960396+654129082+654084345+653491697
3328+654473316+657288541+659280865+658407322+655646136+652935075+651212130
3318+650953677+652517018+655519604+658729557+660690138+660590477+659047216
3308+657682606+657432938+657626205+657015692+655628049+654870187+655466082
3298+656104722+655101399+652930498+651624429+651904807+652463644+652190353
3288+651727190+652164958+653417801+654741218+655922011+657021672+657660533
3278+657380819+656371812+655421420+655089440+655060649+654601915+653528904
3268+652179649+650822273+649761959+649546028+650258785+651197070+652122215
3258+653662375+655606272+656224462+654303524+650887384+648198840+647510149
3248+648355565+649302856+649364793+648810903+648522256+648765723+648949837
3238+648398382+647035765+645424661+644348106+644107370+644077768+643330019
3228+641732424+639998184+638992794+639425985+641361244+643526977+644396533
3218+644177428+644089653+644035098+642653730+639716255+637046019+636398078
3208+637254789+637473082+636001872+633908042+632435208+631504231+630648627
3198+629998324+629547637+628672470+627339382+626752936+627755446+629452258
3188+630320043+630099092+629811258+629952111+629619688+628086614+626305571
3178+625823805+626769472+627589493+626590526+623593107+620084984+617775888
3168+617203098+617650389+617929439+617154486+615240193+613004586+611513223
3158+611067925+610980962+610387982+609232179+608385692+608595717+609483249
3148+610077336+609935892+608949586+606852581+604044370+601863762+600955449
3138+600279160+598537574+595970652+594143174+594232980+595805031+597392845
3128+598114571+598109883+597511404+595961240+593475191+591087104+590168087
3118+591101721+592714781+593353863+592507377+590892581+589325623+588085035
3108+587073850+586345258+586327430+587065692+587632318+587148890+585860908
3098+584402100+582934248+581696354+581181516+581152097+580703219+579734224
3088+579201372+579740609+580938049+581913356+582066833+581426127+580510247
3078+579687051+578845215+577877660+577019177+576475879+576159808+575823066
3068+575108390+573740568+571920103+570176746+568893230+568318816+568569407
3058+569139945+569092144+568299844+567674862+567646624+567479490+566591294
3048+565431689+564529392+563648430+562465460+561467231+561431870+562196266
3038+562675928+562259901+561490928+560983619+560284556+558499305+555872771
3028+553856012+553413150+554016908+554557917+554506647+553805517+552486234
3018+550914219+549713753+549117857+548835670+548534695+548004169+547007675
3008+545449022+543676320+542361429+541971904+542345816+542797241+542701382
2998+541953781+540776348+539269518+537494085+535924691+535290924+535706249
2988+536292844+536035424+534854521+533482307+532493934+531859687+531263754
2978+530467245+529385449+528103557+526858354+525928153+525486952+525422505
2968+525272793+524605880+523552800+522644192+522086241+521609568+521013303
2958+520369386+519740897+519158253+518765553+518559847+518133521+517103844
2948+515708302+514570437+513888317+513247241+512396141+511719594+511557110
2938+511598082+511380969+510900052+510311391+509571873+508734319+508060909
2928+507605719+507162968+506613285+505811978+504346268+502053818+499675254
2918+498406798+498750110+500079765+501299794+501660454+500984719+499496899
2908+497666173+496122395+495467330+495857335+496665803+496865235+495997413
2898+494565513+493267712+492128741+490695955+488878443+487180782+486158930
2888+485997110+486585513+487565471+488258186+488016601+486765087+484974040
2878+483241461+482072222+481694324+481810779+481779774+481175536+480090159
2868+478950191+478101010+477508768+476923097+476314651+475871752+475565721
2858+475100823+474319005+473391498+472673130+472383377+472242376+471636366
2848+470474768+469471962+469126029+468947748+468188593+466879423+465610155
2838+464617942+463677221+462695454+461863474+461281752+460872443+460595313
2828+460411494+460108010+459458039+458562091+457826006+457478671+457192940
2818+456415367+455070947+453607008+452373138+451363872+450533110+449977853
2808+449718699+449578805+449392366+449164587+448886275+448284954+447085300
2798+445550897+444376158+443924696+443867595+443624940+442928461+441930822
2788+440915540+439939015+438827948+437530258+436291293+435379843+434758847
2778+434203480+433717285+433518960+433489320+433080343+432098614+431062551
2768+430395231+429843112+429045311+428096544+427216025+426344438+425357873
2758+424372859+423623116+423163718+422822289+422458824+422182432+422113814
2748+422047373+421668516+421002562+420284748+419522752+418550287+417359971
2738+416113071+414985616+414104617+413379974+412464500+411240928+410190543
2728+409863915+410136690+410361480+410125986+409519127+408751889+407886947
2718+406975385+406193050+405691832+405397944+405046512+404410272+403500556
2708+402581354+401947181+401647609+401479441+401249336+400931567+400531633
2698+399920050+398937951+397682192+396576514+396029341+396018785+396117338
2688+395905504+395222165+394111025+392835739+391875751+391491652+391308978
2678+390745785+389804769+388988106+388537678+388235559+387873533+387510141
2668+387273023+387153209+386999510+386634569+386028190+385370726+384876410
2658+384523021+384103118+383528003+382937644+382486883+382163098+381847728
2648+381430851+380840455+380065392+379179078+378338091+377728353+377388253
2638+377096691+376636665+376125887+375835542+375773310+375724107+375600713
2628+375458346+375227983+374717721+373919366+373089047+372410470+371779287
2618+371083841+370475691+370119460+369897549+369609973+369235508+368803794
2608+368298293+367848013+367685344+367749127+367626729+367048625+366223989
2598+365568371+365277399+365243072+365263410+365240931+365181430+365076048
2588+364880603+364597936+364257393+363831584+363301132+362761821+362358860
2578+362144480+362029722+361809104+361312868+360657656+360196043+360065303
2568+359961287+359520825+358779166+358107122+357800426+357835271+357951283
2558+357885322+357575858+357214017+357031011+357002515+356900455+356625651
2548+356255578+355811646+355293596+354884508+354786435+354886871+354844090
2538+354472098+353893071+353355606+353008492+352852209+352826777+352851434
2528+352819580+352695927+352596082+352624799+352662375+352462684+351970731
2518+351439319+351171380+351176658+351194486+351077994+350955965+350926363
2508+350864462+350685886+350515835+350447106+350387679+350263177+350124096
2498+349967223+349666949+349157500+348545474+348014726+347729402+347790711
2488+348135869+348483573+348517310+348176028+347702457+347389338+347314925
2478+347332642+347299016+347235012+347183484+347028050+346645502+346145501
2468+345750366+345525982+345395611+345301082+345239809+345234125+345277606
2458+345260996+345049753+344656574+344208138+343806876+343563040+343602313
2448+343865897+344041890+343859548+343384278+342927907+342710426+342670967
2438+342605967+342423514+342217402+342125456+342154911+342178239+342142361
2428+342179937+342357849+342459060+342259222+341885052+341661185+341723159
2418+341963895+342230948+342422370+342477036+342396827+342244273+342079169
2408+341948171+341931154+342083635+342313334+342435843+342389999+342284322
2398+342208100+342104158+341871321+341545690+341314441+341302998+341399779
2388+341386233+341156165+340662513+339735560+338136452+335793249+332922547
2378+329928783+327155195+324657408+322230343+319672833+316943538+314121301
2368+311451913+309381079+308187626+307652043+307505007+308065173+309985243
2358+313507577+318276036+323807230+329952665+336581822+342825995+347297244
2348+349098921+348414365+346436215+344563852+343355377+342533657+341568021
2338+339871910+337136451+333766561+330641909+328389582+327027593+326186643
2328+325480751+324709822+323892753+323179184+322727390+322699670+323251604
2318+324332699+325574506+326541360+327075061+327365405+327742675+328398220
2308+329264232+330157596+330968759+331638736+332079457+332264641+332307495
2298+332337799+332395454+332501168+332700342+332988287+333297160+333573109
2288+333802697+333991388+334154130+334277229+334297788+334180669+333960308
2278+333670149+333339682+333068163+332950674+332953553+332985223+333003826
2268+332961710+332789519+332524681+332301663+332152762+331975035+331759805
2258+331694398+331921476+332314582+332626002+332781915+332891357+333012869
2248+333059784+332956284+332803878+332802697+332993491+333173581+333132905
2238+332893129+332670960+332684027+332982713+333393536+333682219+333810928
2228+333927310+334102454+334227842+334187904+334029037+333919891+333951967
2218+334036124+334056610+334048416+334114967+334264162+334433843+334565727
2208+334592968+334505378+334454809+334625708+334985077+335306500+335437055
2198+335413728+335352344+335352233+335468725+335661624+335806574+335843227
2188+335858029+335956508+336130250+336312481+336495930+336724927+336999215
2178+337227696+337287382+337135492+336867405+336662141+336660702+336876854
2168+337209905+337535795+337788526+337972381+338119768+338231609+338267598
2158+338217842+338160703+338197983+338360282+338623718+338964594+339333116
2148+339611243+339673807+339521548+339343747+339398006+339764535+340235044
2138+340509184+340504828+340420117+340499402+340814588+341268523+341690973
2128+341897528+341793734+341495121+341256379+341247742+341453412+341750769
2118+342024282+342248702+342486374+342780003+343110950+343471943+343834891
2108+344065476+344075848+344021146+344134796+344405392+344597737+344589284
2098+344533844+344636752+344901406+345233128+345647679+346152182+346564260
2088+346716039+346710170+346763101+346938282+347150891+347282591+347237743
2078+347005904+346699171+346490290+346497229+346684406+346890113+347027755
2068+347195591+347468107+347704450+347741989+347663958+347670270+347773991
2058+347825703+347793258+347812009+347951128+348124279+348271075+348456001
2048+348731506+349050162+349351432+349585523+349643917+349463716+349224161
2038+349204525+349399047+349503432+349320205+348956075+348610327+348411301
2028+348453786+348759190+349168942+349453602+349600546+349885833+350525506
2018+351271077+351561901+351183450+350518493+350012919+349723719+349527240
2008+349434519+349501919+349662963+349821608+349977964+350136535+350183892
1998+350063081+350114056+350919460+352513511+354001664+354411379+353734426
1988+352665254+351727818+351089474+350763510+350636978+350545881+350460653
1978+350475270+350649491+350925181+351164514+351375389+351893402+352976416
1968+354136095+354406618+353561128+352453235+351883436+351807730+351855604
1958+351986049+352291121+352623101+352776061+352800054+352947957+353424150
1948+354300719+355672048+357586489+359440543+359895844+358342616+355953348
1938+354306736+353788390+353844016+353985386+354107525+354238708+354359962
1928+354586191+355427916+357276249+359498309+361018427+361919358+362942206
1918+363557665+362500268+360145696+358338261+358207115+359325675+360424819
1908+360592470+359981293+359340624+359081544+359116314+359338889+359881153
1898+360905367+362175337+363076896+363573242+364600114+366520092+367951180
1888+367491043+365780722+364302757+363513298+363169580+363190398+363558846
1878+364096681+364596903+365051502+366117722+369139317+374615698+380227691
1868+381869431+378514453+373488353+369972627+368526664+368224360+368199076
1858+368125512+368083580+368256768+368679513+369389613+370627507+372706941
1848+376032538+380804578+385478913+386498366+382752719+377872455+375253820
1838+374972741+375335210+375617249+377102301+381196465+386684436+390012321
1828+389835516+388405314+387032435+384754123+381561480+379180518+378575726
1818+379045791+379629433+380430888+382239652+385014790+387255010+387505527
1808+386179748+385040185+385613233+388454443+392760477+396379740+397443671
1798+396547761+396383690+399236822+404703938+408641376+406764659+400945409
1788+396522181+395770446+397331350+399314594+401279641+403029568+403819507
1778+404066185+406015692+411658063+420155743+426753231+426870277+421883450
1768+415827894+411114027+409465458+411688699+415625547+417589966+417261787
1758+416891789+416860451+416972403+419286298+425724255+434137926+439096109
1748+438343930+434929008+432286086+431657893+432781103+434396009+435053473
1738+435775680+440070456+448858075+455760044+453537504+445660893+438189900
1728+432967321+430588720+431136890+433402579+436933808+443783806+455771819
1718+469591997+476163352+471500754+461975131+454153591+450708586+452352984
1708+458536881+466693649+473332588+478548559+486186133+497163699+505534737
1698+506670203+502721285+495246416+486465367+481253825+481838721+486704811
1688+494559571+506872440+522999094+532704586+527863486+517436858+511179692
1678+511549063+516962954+523422983+527944949+532182107+537896750+541436137
1668+538697799+533793875+533133237+537151954+540928681+540720870+539112830
1658+541311525+550919977+569032533+589268005+594802262+587130361+583805429
1648+588046389+591048015+584991056+574956168+568949298+569356245+576029400
1638+587935876+600268271+603130114+594330278+584521618+580998694+583351604
1628+587953446+592435289+597016460+600906061+601651263+600589842+602787061
1618+610066374+617034709+616887765+612349190+610070028+611907657+615711439
1608+618791133+620446272+621770059+623751383+626224883+628539442+630729611
1598+633417934+636696469+639804916+642135421+644064553+646308243+648806695
1588+650837185+652160381+653456263+655451613+658344868+662615874+669563022
1578+679465953+688281255+689981611+687207063+688044727+694377450+700643142
1568+701463754+699395541+699325852+703201316+712927147+731641467+755938547
1558+766405335+756753179+744406057+737478028+735586029+737113123+740359545
1548+744857851+752317328+764359637+780429042+798437840+812890752+813322097
1538+801610292+792675101+792487887+797053371+799673556+799497859+801264655
1528+807242217+815357977+823498172+832269550+840942818+845412997+844970209
1518+843290154+841109657+837572521+835102270+837355852+845773620+859778133
1508+875447789+880794242+868469193+852500186+844708803+845580352+851434705
1498+856956560+857323237+853130262+850239443+852856749+859989930+866119124
1488+866021014+860622738+854650933+851194191+850332534+850754061+852237230
1478+856116902+863292384+872452659+879414350+879004635+871812617+864990229
1468+863380823+866267286+869596463+870149099+869698043+872557856+880350052
1458+889172515+890506342+882546200+872987135+866797259+864752594+865659357
1448+866403194+864435526+860965865+858710954+858514217+860523594+865846793
1438+874046415+879840307+878255114+873242413+870987059+871558963+871084727
1428+868465058+867072691+869327749+873893750+878603114+882897374+885451783
1418+883273869+876786783+870140241+865857423+863858824+863169764+863210072
1408+864190362+866095870+867620897+867792313+868141420+870672501+874863926
1398+878694211+881384159+882682550+881385783+877921953+875487284+876098609
1388+877836393+877204619+874263527+872486913+873823323+877420033+881961451
1378+887219982+893227663+898534917+900397165+898175327+894880477+893515202
1368+894460501+896960281+900625794+904362915+905744430+903566369+899747305
1358+896909934+895705740+894954964+893602461+892100688+891357516+891070568
1348+890133095+888266786+886487957+886233859+888320824+891997484+894629407
1338+893655392+889648228+885791441+884265528+884563181+885006928+884829385
1328+884423582+884319935+884604816+885156862+885997184+887226552+888771954
1318+890342825+891579870+892229508+892336920+892332417+892739179+893723087
1308+895031149+896343862+897450906+897976892+897482723+896277717+895538901
1298+895930161+896621140+896329098+894778750+892570347+890289820+888093303
1288+885685653+882706764+879266558+875888436+873016073+870816086+869068706
1278+867157144+864744548+862332912+860699144+860109375+860375653+861239451
1268+862313496+862929103+862656107+862049064+862277102+863737239+865641935
1258+867285595+868809588+870228311+870916264+870784047+870878245+872103626
1248+874209932+876597724+879224626+882018590+884294540+885605186+886369472
1238+887048196+887674360+888551077+890370729+893218952+896324078+899072862
1228+901652887+904346895+906751813+908375320+909686187+911707302+914565270
1218+917166482+918531167+919033455+919997283+922271240+925508804+928844182
1208+931785790+934118658+935650772+936676167+938107514+940745785+944667758
1198+949034511+952303301+953509784+953695448+955089144+958515029+962303604
1188+964023523+963050762+961077116+960339776+961954497+965471553+969208747
1178+971622598+973099345+975495036+979405418+982996148+984243012+983509068
1168+982926903+983782876+985397228+986433402+986625488+986643353+986869620
1158+987281107+988111685+989624974+991457472+992948097+994131695+995838990
1148+998558319+1001627493+1003954011+1005279496+1005960952+1005914075
1140+1005232471+1005362251+1007834053+1011737348+1014119381+1013580919
1131+1011443313+1009398722+1008518978+1009878717+1013736685+1017939257
1123+1019455573+1018363294+1017993000+1020569556+1025016554+1029157485
1114+1032093261+1033868178+1034384198+1033550002+1031723705+1029771393
1105+1028801512+1029408334+1031290367+1033534721+1034988878+1034951007
1097+1034021507+1033794872+1035591714+1039565731+1044256861+1047331793
1088+1048060644+1048291118+1050014211+1052938102+1055302934+1056192201
1080+1056310982+1057095273+1058883699+1060617349+1062057480+1064229488
1071+1066416925+1065499753+1060411826+1054676771+1052521595+1054701133
1063+1059185117+1064077635+1068230229+1070544345+1070689702+1069649320
1054+1068755919+1068725874+1069397733+1070358534+1071416855+1072490161
1045+1073401132+1073741823+1073036374+1071040802+1068211035+1065854397
1037+1065214502+1066459668+1068758356+1070937524+1071860824+1070465208
1028+1066272528+1060812535+1057171827+1057040497+1059359338+1062470222
1020+1066186229+1070050989+1071721742+1069805603+1066321767+1064048475
1011+1063559474+1064183865+1065544785+1066742039+1065829666+1061946303
1003+1057170646+1054503141+1054725199+1056551717+1058775992+1060633294
994+1060617275+1057511706+1052767202+1049464380+1048930569+1049827661
985+1050252141+1049628266+1048453232+1046988001+1045021884+1042963046
977+1042022620+1042429531+1042626563+1041036646+1037489766+1032714700
968+1027745554+1023646776+1020810734+1018443096+1015169286+1010558401
960+1005901156+1002859961+1001184631+998516166+993629185+988340018+984937313
950+983533355+982441593+980147409+976521908+972633525+969769282+968451106
940+968244624+968245215+967521680+965550764+962750009+960241001+958700028
930+957844720+957281158+957224905+957982694+959215901+960051129+959542566
920+957498418+955254876+954620518+955760930+957211839+958023518+958470071
910+958674117+958364136+957899496+957804413+957528021+956082058+953664368
900+951697439+951288905+952020709+952219291+950553411+947597333+945448653
890+945527569+947166800+948538054+948395577+946553039+943461570+940212491
880+938242757+938107366+938842270+938831639+937263943+934641986+932401840
870+931992863+933677346+936082929+937390401+937443848+938021289+940301595
860+942950423+943559238+941564920+938823224+937388260+937694550+938767192
850+939234415+938289782+936465847+935174542+935051701+935489396+936066910
840+937071709+938044248+937538711+935371649+933676830+934656234+937805505
830+940088838+939414690+936971827+935185394+935044393+936432996+939244160
820+942661776+944992429+945683556+945944224+946626640+947401039+948081388
810+948693598+948688283+948093568+948025725+948536135+948027571+945975303
800+944174697+944735674+948012216+952000555+953763660+952520857+950680755
790+950657279+952403110+954872106+957191538+957618454+954560944+949444448
780+946152920+946973458+950501292+953772961+955158685+954306403+951081464
770+947021295+945767419+948902885+953008086+953952055+952660455+952711393
760+954409976+954986014+952894916+949353941+946038569+943248297+940747262
750+939026236+938898818+940331714+942324407+943865675+944721131+945424587
740+947010665+950176399+954114686+957206893+959133515+961057405+963001006
730+962896547+960047733+957347229+957616608+959652856+959370264+954984464
720+949408423+945606338+943289638+941096664+939401919+939815768+942535097
710+945791485+948260260+950341319+951974053+951267940+947427098+943155428
700+941598731+942461274+942983348+941286462+937460680+932970938+930425831
690+932566464+939298493+945854456+945913661+937670410+924989757+912789098
680+904464125+901107486+900692529+900288646+899782445+900547394+901267017
670+898651630+892684920+888727734+889766270+893835076+898623725+901823196
660+901533000+897535138+890202119+880493932+871534011+866390644+865367094
650+867547665+871706903+874051583+870417666+862877575+858025364+859108193
640+864258943+870216573+874527222+874746179+869188889+859847970+851900230
630+849138675+851045217+854343019+856523222+856944232+854973907+848720175
620+837988585+827444727+823082181+826489167+834423988+842764021+848722094
610+850497527+847367966+840979064+835291846+833162212+833775235+834216473
600+833865077
##END=
