##TITLE=<SNM>
##JCAMP-DX=4.24
##DATA TYPE=INFRARED SPECTRUM
##DATE=2/5/2025
##SAMPLING PROCEDURE=Instrument type and / or accessory
##ORIGIN=Admin
##XUNITS=1/CM
##YUNITS=ABSORBANCE
##RESOLUTION=4
##FIRSTX=4497.3318
##LASTX=599.83466
##DELTAX=-1.4281778
##MAXY=1.8504092
##MINY=0.39504454
##XFACTOR=1
##YFACTOR=1.7233278e-09
##NPOINTS=2730
##FIRSTY=0.41303477
##XYDATA=(X++(Y..Y))
4497+239672779+240475231+241967450+242920666+242778289+241884113+240731019
4487+239618806+238899398+238829930+239133102+239134848+238416011+237213492
4477+236243397+236139602+237012974+238662045+240893629+243008171+243502263
4467+241569614+238624708+236886559+236901293+237707411+238613001+239466312
4457+239894983+239643570+239234269+239324281+239800820+240163914+240408115
4447+240848545+241267860+240945873+239630860+238002143+237009740+236949420
4437+237238169+237136069+236739201+236911600+238087556+239664029+240832877
4427+241365879+241271976+240552792+239648931+239237295+239316620+239210784
4417+238671746+238293815+238594393+239285561+239638849+239218203+238194741
4407+237141949+236568584+236567684+236967181+237678582+238572568+239154476
4397+238955152+238298190+237959152+238069934+238181269+238276885+238692516
4387+239096820+238664691+237290759+235831761+235152006+235278681+235425174
4377+234988686+234501391+234907753+236051561+236888513+236916321+236334793
4367+235300038+234088717+233359970+233376226+233528771+233069491+231982355
4357+231008784+230859351+231496979+232372253+233143473+233766764+234137104
4347+234090377+233645036+233071705+232676359+232445180+232078212+231508496
4337+231031940+230815789+230714051+230555920+230226185+229727753+229517084
4327+230133907+231191178+231572309+230915710+230081560+229922529+230306185
4317+230594329+230574476+230551631+230779836+231186007+231638266+232166495
4307+232743423+233037101+232637189+231580368+230576758+230490118+231360637
4297+232105484+231662062+230316353+229277552+229233540+230044033+231378121
4287+232750461+233360316+232806043+231661924+230796368+230556214+230891275
4277+231681846+232565300+232966301+232751983+232449192+232468630+232583891
4267+232497423+232339638+232254606+232081100+231758076+231574644+231719355
4257+231890198+231668322+231150089+231012001+231819208+233286473+234440691
4247+234563959+233799950+232920422+232610073+232907158+233423057+233938817
4237+234401296+234521071+233929306+232753782+231657168+231231680+231505210
4227+232060158+232551725+232936107+233182383+233161043+232944027+232783475
4217+232748784+232861987+233366282+234228362+234775389+234538572+233918463
4207+233449256+233118657+232834093+232814171+233205574+233908536+234810581
4197+235706504+236099187+235566081+234360760+233282772+232815468+232665153
4187+232355928+231978965+231923349+232189703+232482914+232696437+232904477
4177+233174757+233649151+234489355+235525545+236227816+236243829+235796050
4167+235364353+235106369+234793184+234218677+233502503+233057490+233295725
4157+234231907+235345779+235903148+235504845+234526588+233908882+234071596
4147+234228932+233406403+231868477+230748777+230640416+231359651+232623476
4137+234089028+235050770+234961674+234249996+234002042+234725514+235793905
4127+236272260+236042931+235751502+235779344+235781437+235325563+234544486
4117+233916405+233727058+233967438+234512666+235158041+235542804+235264344
4107+234301772+233234437+232687167+232643000+232652529+232536403+232561634
4097+233056763+233925916+234486778+234086936+232956167+232018515+231939692
4087+232739636+233974321+235019054+235598714+236035945+236561614+236764934
4077+236294707+235607464+235386436+235632073+235795877+235527482+234920291
4067+234150455+233236408+232229807+231420282+231224451+231844560+232966180
4057+233889565+234176516+234109331+234297916+234956296+235797796+236467642
4047+236834401+236899096+236651488+236217025+235889711+235690888+235226472
4037+234376930+233700599+233683825+234079499+234432476+234767330+235348408
4027+236167911+236944509+237406850+237492989+237345303+237155662+237105408
4017+237386184+237948067+238213193+237564618+236237656+235181232+235020489
4007+235635116+236609050+237528475+237960587+237708033+237088875+236687009
3997+236865530+237514882+238185904+238622529+239089021+239881632+240808165
3987+241506441+241860421+241879720+241704520+241699384+241978846+242187354
3977+242240462+242582302+243251732+243532354+242916239+241691654+240424111
3967+239581400+239664582+240957286+243013169+244874915+245828667+245574972
3957+244064647+241918907+240599035+241396177+244307655+247953188+250484554
3947+251129878+250973233+251376500+251912131+251080055+248832284+246736869
3937+246102665+247469057+250911807+255345836+258172178+257548419+254847957
3927+253041758+253366892+254501257+254783954+254617591+255589190+257840523
3917+259282332+257728012+253569139+249267924+246773064+246566822+248764926
3907+254000058+262371154+271652958+277996083+279489080+276868946+271218788
3897+264409708+259871624+260190032+264391861+267754335+266590692+263678713
3887+263698151+266515742+268671633+269748999+271697247+272597943+269232581
3878+264432985+263643262+267855502+274029566+279365259+282150079+281226832
3868+278668661+278113056+279499941+279142692+275209620+270457512+268601542
3858+271739460+280678785+293607229+301273875+294815351+281385016+270483608
3848+265396318+266249111+271441338+278446232+285538510+292342385+297629483
3838+298471330+294335111+288635408+284028513+280529248+277825206+276650028
3828+277255836+278757739+281413014+287016635+294606896+298626798+297034069
3818+293891603+290302792+283972188+275996508+270482484+270199390+275481128
3808+283471404+289545235+293379405+298285321+303261345+303181380+298431728
3798+293877803+290484997+286830540+283660249+283004722+285417110+289967524
3788+295446667+300604168+304284807+306893285+310651468+316627470+322610008
3778+326100212+328461532+333184102+342411519+356142328+372021506+386128103
3768+396567100+404598570+411550165+418167132+425418112+432913587+438223790
3758+440177953+441397419+445809122+455608019+469231920+480730627+486586612
3748+491174812+498687028+506950817+510436317+510467687+513842093+524124861
3738+540550202+557970643+568486631+568473315+562754571+559099492+561622160
3728+569624645+579071377+585522119+588003041+588004770+586463991+584215563
3718+582624840+583276735+587834257+596128344+602843469+600836388+591102446
3708+580558062+573935942+572596113+574971026+577362298+577478406+576456639
3698+575741796+575847563+577936476+583705544+593688305+605013523+610445818
3688+605738604+596806456+590928612+589708731+591541216+595399667+602156849
3678+612109727+620501695+620784063+617054415+617098271+618485553+612813848
3668+600152466+587872233+579374255+574125444+571342198+571180435+573880257
3658+577817220+579779856+579921386+583461637+594658399+611000454+621038070
3648+615239084+599661539+585038940+575849430+571512746+569657537+568762946
3638+568994298+570455492+571965559+573159811+576344750+583250103+589457214
3628+587547254+579371384+572383334+570857912+575695276+584294698+590773663
3618+592064793+591931426+594063642+597369601+599683121+601477700+603411317
3608+603977921+602625156+601359343+601539472+602668113+604716075+608742203
3598+614187779+618085382+618414166+616801238+616621040+619700800+624758864
3588+627580190+625395126+621163275+618785837+618543590+619103760+620096613
3578+621718741+623519337+624774152+625510369+626680792+629684045+635502538
3568+642823003+647043371+644886668+638941725+633607104+630210804+627456023
3558+625038534+625078309+628982968+634288536+636642178+635396356+634047811
3548+634618219+635406455+634345881+631635233+628514453+625877060+624300518
3538+623937355+624254102+624473591+624739565+626195191+629014096+631199783
3528+630703392+628059151+625056104+622090896+619069312+617319627+617996701
3518+619666628+619558025+617078003+614453476+613783389+614887681+616223844
3508+616826141+616814865+616626090+616112543+614412249+611242770+608037183
3498+606614968+607252682+608971584+610885487+612267097+612144037+610253584
3488+607924706+606804089+607070685+607500739+607038381+605682365+603735466
3478+601351250+599114374+597988914+598135425+598272389+596845747+593818905
3468+590932278+589996978+590987894+592032489+591493417+589764485+588344967
3458+587766397+587586061+587711611+588305607+589002742+589455277+589815466
3448+589933062+589382576+588632177+588366273+587707046+585290387+581823322
3438+579323758+578304377+577475916+576081128+575100346+575796616+577881240
3428+579481578+579077534+577426249+576723857+577758768+578645128+577024107
3418+573267549+570173678+569760399+571324905+572350822+571338186+569562388
3408+569182485+570217984+570740800+569751752+568223528+567273078+566806777
3398+566259819+565786704+566193378+567703098+569096191+568520284+565514678
3388+561687771+558879415+557403209+556616114+556351766+556676365+556951158
3378+556618812+556264158+556420041+556391334+555641316+554961682+554947260
3368+554879123+554213394+553612930+553481050+553028376+551832221+550910168
3358+551234801+552255012+552637613+551775810+550177547+548985473+549121192
3348+550254261+550961218+550501177+549608695+549172035+549270366+549698864
3338+550370231+550955615+551036687+550742525+550572634+550621228+550452133
3328+549815629+549257742+549754825+551635594+553981212+555295965+554671671
3318+552297588+549348256+547496332+547771817+549470071+550820830+551069095
3308+551052112+551534047+552148346+552213023+551716216+551094793+550387386
3298+549099610+547150221+545519792+545419317+547128708+549974037+553000464
3288+555284517+556059991+555157756+553245962+551408808+550386798+550107543
3278+549898361+549288247+548653473+548875625+550220193+551765676+552172902
3268+550924521+548841661+547581589+548232758+549992783+550739135+549538380
3258+547905773+547780049+549163492+550502007+550743424+550222199+549722694
3248+549471731+549203129+548724480+548133355+547671031+547589994+548065218
3238+549008681+549899814+549954496+548806278+546922362+544837461+542380992
3228+539528642+537359625+536896783+537570744+538033586+537880297+537347381
3218+536156484+534233207+532774780+532968812+534069853+534153588+532845406
3208+531959219+532886841+534677062+535527693+535062083+534005625+532703012
3198+531124187+529406910+527639898+525937736+524867754+524815597+525106750
3188+524719515+523613286+522555824+521910882+521236298+520014272+518433476
3178+517236110+516806298+516747397+516558517+516269440+516079211+515867470
3168+515505829+515142078+514715275+513771813+512229892+510722904+509829385
3158+509398293+508736611+507218590+504812687+502266223+500623966+500307876
3148+500815439+501474666+502156513+502896155+503255064+502777902+501759801
3138+500851652+500054941+498787710+496966154+495374809+494768396+494944167
3128+494943095+494201447+493108499+492130761+491087965+489744054+488401597
3118+487526305+487339362+487869303+488851884+489647487+489724443+489026375
3108+487653792+485588709+483038061+480779568+479709240+480034911+481203292
3098+482471526+483180835+482900059+481968667+481408427+481671772+482002804
3088+481486940+480207223+478939784+478120420+477534205+476900019+476380143
3078+476206897+476108047+475647660+474947379+474510061+474460360+474477169
3068+474329898+473989424+473338774+472253159+470911255+469668304+468758356
3058+468390247+468726225+469351522+469352906+468477441+467545945+467208757
3048+467072312+466551916+465778725+465138071+464582951+463800490+462655005
3038+461340701+460322600+460024461+460337818+460561181+460149423+459329471
3028+458574092+457829331+456813616+455746436+455157109+455166032+455366948
3018+455281864+454793427+454225579+453873691+453470753+452593559+451475640
3008+450688234+450189386+449424357+448172829+446709732+445371978+444361002
2998+443702743+443211193+442698545+442210109+441862752+441566203+441142133
2988+440616342+440136587+439713934+439317672+439043743+438859083+438383029
2978+437342792+436039901+434973759+434262409+433718737+433207265+432702434
2968+432185498+431621108+431004561+430434430+430053697+429818747+429475403
2958+428871238+428138168+427544967+427316590+427456597+427540367+426959133
2948+425611246+424043004+422810187+422108141+421943404+422114056+422136019
2938+421703440+421025293+420367104+419651258+418792049+417966113+417340642
2928+416905435+416591247+416235105+415534616+414342992+412970167+411995022
2918+411700930+411750977+411570226+411046890+410576785+410379570+410197677
2908+409828462+409495286+409401693+409311767+408891847+408152067+407278262
2898+406358630+405537086+405127508+405264818+405629745+405789779+405674708
2888+405430351+404983453+404165921+403146990+402278685+401562873+400755026
2878+399942406+399468703+399298224+398987737+398344662+397662296+397224079
2868+396932684+396534900+396034704+395749569+395888747+396130890+395833062
2858+394733128+393255124+392068619+391496032+391325380+391081680+390520818
2848+389892477+389640719+389889710+390315441+390446353+390058114+389328572
2838+388557075+387764481+386779410+385699433+384923336+384670540+384778659
2828+384986181+385100525+384920465+384376344+383745305+383322030+382886234
2818+381962279+380655688+379730625+379704477+380254894+380638844+380404448
2808+379597742+378554289+377632235+376984906+376477204+375881098+375195827
2798+374674809+374440586+374196299+373514867+372355270+371109172+370207352
2788+369825892+369841802+369934184+369854427+369650675+369499703+369367823
2778+369005179+368227007+367094631+365877516+364884594+364261821+363933176
2768+363742256+363565517+363281766+362790908+362136972+361504377+361039356
2758+360720602+360427063+360082715+359662207+359081285+358247221+357290165
2748+356577882+356363443+356494631+356528319+356080349+355093583+353862080
2738+352806729+352191150+352022954+352121700+352197549+351966128+351345915
2728+350538448+349828378+349345786+349062070+348904353+348787242+348614342
2718+348327512+347906969+347323003+346585852+345819716+345153710+344558642
2708+343932583+343317074+342864435+342625716+342537346+342545128+342558721
2698+342371813+341842079+341099878+340414469+339911228+339538174+339234051
2688+338991907+338766055+338437755+337962669+337494881+337221851+337083158
2678+336836484+336415388+335995606+335668413+335306323+334825633+334334568
2668+333930004+333572756+333244353+333029602+332953580+332870606+332587996
2658+332060442+331435144+330886319+330423891+329965199+329584224+329489801
2648+329676951+329796449+329542789+329051308+328704366+328597078+328431891
2638+327967146+327338217+326851475+326656162+326689193+326756533+326613620
2628+326141301+325513721+325051570+324827481+324558810+324007944+323329451
2618+322809437+322440394+322053608+321707012+321570705+321548224+321381273
2608+321054080+320778111+320634125+320488618+320241045+319971509+319836447
2598+319885975+319978461+319886252+319519457+319005011+318523941+318139127
2588+317802700+317479450+317249412+317241215+317396995+317420964+317102141
2578+316559091+316055540+315725027+315519512+315264537+314798478+314185874
2568+313662954+313303837+312967894+312627420+312482882+312671104+313058166
2558+313386051+313486664+313312553+312917294+312495817+312275152+312222442
2548+312045876+311639237+311285862+311236645+311348637+311338296+311148794
2538+310883685+310587621+310288617+310115613+310155353+310242443+310112119
2528+309769363+309493394+309459775+309555961+309570834+309408759+309135626
2518+308908770+308823548+308815939+308779484+308715845+308671712+308602503
2508+308415837+308124546+307859230+307711855+307620165+307452245+307181014
2498+306926385+306839088+306955023+307122424+307109592+306883290+306698111
2488+306754696+306875369+306739166+306363413+306091007+306121478+306296107
2478+306384477+306383405+306407235+306408480+306214067+305830290+305500884
2468+305408745+305502579+305647291+305744791+305702215+305490577+305219450
2458+304991591+304778432+304582324+304555588+304781095+305072940+305154081
2448+304962711+304701269+304620750+304788497+305056234+305222736+305160376
2438+304807762+304217397+303647577+303380843+303399831+303479035+303573492
2428+303791597+304029383+304026754+303779699+303557409+303542225+303687871
2418+303837010+303830438+303645744+303500548+303635368+303984108+304273981
2408+304419523+304552095+304683214+304661079+304500803+304438754+304591836
2398+304839201+305063186+305239960+305315498+305261681+305218413+305345001
2388+305574762+305666175+305411857+304674533+303315058+301243439+298534555
2378+295390740+291988180+288454950+284991241+281869233+279246436+277016096
2368+274892181+272719412+270740762+269493574+269420561+270631640+272988153
2358+276334353+280652464+286096276+292867138+300611674+307854872+312684766
2348+314034452+312310085+309285976+306966679+305977112+305568329+304896097
2338+303722423+302317398+301003198+299848755+298791951+297863118+297192062
2328+296861688+296765294+296650016+296410743+296263749+296505166+297169062
2318+297991436+298664186+299122187+299550927+300066929+300539975+300860077
2308+301174887+301661906+302244454+302725593+303037740+303176123+303080282
2298+302804486+302617924+302712727+302965488+303143507+303181968+303159037
2288+303155059+303183870+303169966+303020896+302768100+302547297+302403796
2278+302220243+301884819+301436123+300978987+300550455+300159311+299858266
2268+299661363+299491126+299316427+299229960+299311931+299524848+299754575
2258+299861932+299761042+299549889+299456262+299574411+299760039+299817523
2248+299682046+299429561+299231170+299268628+299567425+299931591+300141222
2238+300163842+300093112+299985027+299865944+299801647+299849447+299986030
2228+300117011+300132852+300005053+299868573+299907726+300110267+300246124
2218+300145027+299886593+299678241+299656278+299823403+300069004+300236924
2208+300256604+300189471+300115628+300047111+299957773+299814721+299613287
2198+299439972+299412440+299522289+299653857+299760108+299889879+300046523
2188+300134443+300082286+299986860+300051088+300314295+300539421+300491968
2178+300231874+300003393+299948434+300029644+300130880+300154054+300086125
2168+300008962+300008546+300078827+300150007+300204862+300308519+300498021
2158+300696170+300791387+300763579+300687246+300642802+300658331+300725050
2148+300835693+300973038+301079704+301124356+301197473+301419279+301754323
2138+302036344+302165561+302173793+302138999+302143668+302271605+302547436
2128+302893098+303195145+303405365+303565295+303741619+303944956+304129996
2118+304276368+304404824+304494266+304503120+304518165+304711714+305081794
2108+305427110+305646184+305839560+306054656+306186363+306215208+306312501
2098+306609050+307017591+307372799+307657726+307974612+308318786+308555638
2088+308664760+308789100+308971200+309085890+309086582+309071087+309099552
2078+309174018+309350965+309674214+310037204+310235353+310173650+310045851
2068+310228989+310828519+311424452+311527037+311177190+310814788+310708952
2058+310778610+310859613+310924532+311029815+311166745+311264418+311305784
2048+311341997+311454888+311787407+312421213+313113540+313435302+313285403
2038+312972806+312772513+312721220+312782716+312916221+313046926+313153523
2028+313306086+313540758+313780688+313936502+314087439+314491346+315246552
2018+315959008+316058826+315526879+314935234+314708275+314741686+314779870
2008+314798339+314896497+315054041+315156625+315209959+315382547+315731806
1998+316081826+316467402+317375758+318962988+320337508+320422626+319328434
1988+318041661+317202097+316868956+316929656+317185461+317362788+317344250
1978+317241284+317207770+317293995+317469800+317818956+318654922+320123691
1968+321625491+322129008+321369409+320219912+319594027+319567153+319767204
1958+320041374+320378770+320611194+320592656+320449846+320444381+320746360
1948+321476352+322879683+325104281+327444468+328282025+326797692+324251332
1938+322475188+322000586+322239167+322600186+322918835+323227212+323527842
1928+323917983+324875453+326802257+329082782+330607997+331430267+332285603
1918+332618571+331229179+328736048+327125403+327336245+328620078+329596433
1908+329509620+328731967+328134547+328081248+328277321+328454960+328839809
1898+329798421+331085885+331881108+332095720+332867978+334696243+336084356
1888+335505025+333698099+332289995+331708900+331578300+331723461+332084168
1878+332478425+332820628+333337564+334787311+338297090+344024204+349536948
1868+350964801+347560304+342652382+339283406+337950045+337770435+337935103
1858+338045055+338002306+337964502+338178976+338884619+340325718+342697414
1848+346269312+351182388+356008719+357317005+353802798+348817229+345836145
1838+345278361+345675177+346192979+347865569+352011437+357524042+360999477
1828+361143047+360104436+358940654+356459629+352805864+350159410+349706078
1818+350501820+351202690+351838122+353408784+356059908+358334484+358701036
1808+357433010+356293473+357049682+360404512+365215971+368771613+369199557
1798+367690460+367296515+370209116+375909702+380202253+378569403+372691075
1788+368058984+367198322+368803952+370842264+372794905+374554689+375444265
1778+375807463+377743017+383123743+391191321+397595993+398069661+393663042
1768+387935167+383217404+381390487+383386569+387180204+389302147+389501506
1758+389767480+390099722+390155234+392181026+398327126+406510674+411235216
1748+410192800+406499088+403706053+403095801+404336746+406090477+406855541
1738+407554162+411562340+419790470+426174459+423923783+416409735+409212849
1728+403880441+401025046+400967321+402752076+405983638+412571172+424238870
1718+437750226+444094924+439324278+429821134+421947416+418081460+418879761
1708+424063238+431465743+437825660+443025634+450378369+460373823+467329154
1698+467480057+463132478+455354566+446115321+440351129+440331484+444480292
1688+451297863+461928818+475721504+483551400+478344543+468037530+461307913
1678+460642080+464896931+470307782+473840250+477084575+481777055+484250125
1668+480513179+474778075+473361498+476609489+479620490+478730395+476598698
1658+478383349+487446478+504570544+523341986+527667706+519597707+516176816
1648+520258767+522963639+516603895+506590006+500886481+501472072+507897635
1638+519214380+530979475+533727892+525427786+516357291+513314124+515641756
1628+519801977+523729290+527837044+531346339+531705386+529988213+530942225
1618+536281723+541106325+539564093+534421983+531544522+532357661+534874761
1608+536888274+537966764+538894282+540092340+541223436+541970307+542647865
1598+543860726+545799670+548042460+549972066+551296573+552128354+552707962
1588+553234272+553906573+554876771+556039135+557294018+559496100+564464619
1578+572723704+580297969+581072716+577202506+576236424+580129842+584327071
1568+584394308+582238850+581660971+584443422+592704790+609329697+630573276
1558+638444711+628331626+616376718+609461750+606943959+607180395+608508465
1548+610825098+616479649+627469305+642920054+660017004+673299152+673432588
1538+662315099+653824280+653588259+657437786+658680841+657393307+659309147
1528+666821916+677126543+687012184+696944863+707238975+714200566+715901483
1518+715499721+714671156+712832030+711511362+713975059+722249778+736226709
1508+751895771+757706931+747171056+733272707+726585045+727779954+734178747
1498+741236974+743597049+740652939+738282211+741686812+750437032+758182502
1488+758235143+751915140+745675171+743452268+745107737+748690737+753254692
1478+759538102+768214445+778398917+786790609+788089280+781299586+773335388
1468+770775401+774595183+780902459+784728328+786397978+790852154+801036142
1458+813183285+816364799+807206799+795971921+789728632+788983837+791417582
1448+793447697+792553832+789543384+786934906+786127439+787488781+791455420
1438+797389779+801516278+800350144+796728753+795295262+796490449+797652639
1428+797190004+796321872+796595455+798179814+800965930+805111660+808928399
1418+808623757+803768787+798344309+795009920+793401558+792298649+791606911
1408+792215779+794134870+795630687+795611180+796123481+799878309+806350219
1398+812048694+814263366+812784359+808915117+805238041+804411759+806833675
1388+810010486+810884429+809770245+809922773+813100276+818217968+823568707
1378+828646001+833661662+838191099+841069701+842060409+842657518+844107887
1368+846073671+848259428+851602948+856147741+859312378+858747504+855882044
1358+853898137+853893710+854542700+854428563+853633755+852797719+851942937
1348+851042570+850549360+850761309+851736730+853833114+857007988+859702103
1338+859990628+857930145+855209190+853084376+851896591+851676410+852255396
1328+853171327+853939572+854330336+854602743+855664147+858280372+861660900
1318+863891482+864549464+865340675+867444806+870107517+872289261+873989417
1308+875410941+876287858+876648876+877212229+878418414+879777473+880733941
1298+881540093+882538411+883246475+883036878+882150829+881188828+880048635
1288+878004062+874742859+871033133+868046827+866018025+864101286+861757536
1278+859630716+858712294+859207303+860506250+861822629+862669179+863179613
1268+864033427+865564798+867148258+868026628+868369108+868906450+870027967
1258+871638266+873321543+874423068+874463120+873660080+872806474+872628697
1248+873330882+874663793+876378407+878397108+880584179+882883658+885594928
1238+888820507+891832407+893829872+895044012+896302078+898046505+900188129
1228+902485325+904776295+906815472+908109508+908322494+908104251+908770464
1218+910620589+912490705+913646048+915139097+918256626+922554261+926589728
1208+929601559+931344326+931558211+930894419+931307940+934271834+939132891
1198+943746513+946536088+947852813+949366684+952133086+955398647+957559708
1188+958044756+957737416+957919551+959458186+962485512+965935629+968012368
1178+968210136+967955922+968424782+969432853+970962703+973239008+975139561
1168+975150767+974019774+974550545+978439156+984319075+988968874+990212759
1158+988609032+986512994+985715695+985953861+985833222+984998846+984482533
1148+984998431+986420577+988890985+992653283+996884373+1000191231+1001989960
1138+1002726247+1003332348+1004416373+1005523362+1005982815+1006604204
1130+1008930176+1012805159+1015970764+1016132216+1013343609+1010236110
1121+1009427122+1011241414+1014179921+1016768270+1018527362+1019957947
1113+1021969731+1024853107+1028296721+1031564703+1032867870+1030780617
1104+1026904528+1024735373+1025635118+1027869780+1029664773+1031042095
1095+1032748684+1035150816+1037930777+1040227557+1041059373+1039931147
1087+1037821620+1036909217+1038901494+1043087967+1046329386+1046460609
1078+1044880401+1044908001+1048489203+1054295659+1058236910+1057096371
1070+1052375323+1048850982+1049677887+1054217216+1059460320+1062383055
1061+1062081388+1060877624+1061776815+1064892476+1068085751+1069952754
1053+1070470313+1069706287+1067712142+1065329240+1064165528+1065741032
1044+1069519034+1071587956+1068349442+1061596894+1056901924+1057324438
1035+1060876309+1064182337+1066535080+1068796028+1070923817+1072587726
1027+1073741823+1073522403+1070910605+1066501530+1061541486+1056469933
1018+1052020876+1049660524+1049458605+1050209557+1051671824+1054373480
1010+1058015416+1061595856+1064383218+1065875022+1066024784+1065656018
1001+1065065342+1063132554+1059211916+1055022192+1053548788+1056147513
993+1061046477+1064423547+1063552786+1059132090+1053855713+1049419591
984+1045875882+1043182804+1041891950+1042365999+1044036548+1045607142
975+1045567367+1042810510+1037723670+1032337307+1028616512+1026817161
967+1025900123+1024916885+1023470528+1021203561+1017501859+1012429891
958+1007713200+1005724866+1006506669+1006676214+1002983505+996511457+991352261
948+989539144+989855960+990537254+990893154+990771615+990093642+989151217
938+988203465+986747908+984290437+981734323+980651613+980877535+980086947
928+976758023+972372052+969541595+969106422+969974762+970625895+970089383
918+968584228+967166025+966724004+967567579+969384432+971499769+973255126
908+974256764+974191187+972798786+970356117+967618284+965053109+962754806
898+961166435+960947707+961867720+962724508+962728382+962278613+961919739
888+960875766+957817450+953373720+950192412+950027848+952112818+954494683
878+955922155+956251215+955814313+954930063+953713294+952142079+950090934
868+947604064+945507957+944648609+944977531+945977025+947182241+947930703
858+947282682+945392575+944193307+945428891+948641811+951506647+951958353
848+949912742+947061948+945337305+945453171+946572197+947441367+947465301
838+946169812+943151756+939660618+938168399+939199090+940392202+939597878
828+937513530+936510509+938292774+942679713+947809579+951680689+953658509
818+954329288+954436646+954441626+954264956+953487511+952257322+951833701
808+953630078+957198621+960088706+960783904+960754090+961975700+963837032
798+964130536+962065834+958974937+956723880+956362793+957525537+958797160
788+959222787+959315480+960193228+961861149+962848952+961942151+959859325
778+958162351+957159053+956342456+956186538+957442874+958873321+957969840
768+954977862+953559659+955887430+959624826+961263348+960586965+959571977
758+958991193+958724804+959427542+961337502+962997676+963146123+962374211
748+961679290+961271303+961349331+962111835+962768779+962269482+961613160
738+963112919+966217858+967317032+965275710+963222906+963559713+965064315
728+965740489+966029083+966782663+966531424+963839383+960208930+958567572
718+959769883+962271211+964862880+967850916+971600832+975073292+976095475
708+972894384+965353323+955327329+946321442+942114493+944110782+949686475
698+954330533+955640341+953946479+950739440+948190520+948486515+951759132
688+955899673+959012775+960266690+958883904+954083651+946991045+940372556
678+935931662+933273240+930816460+927271021+922120057+914938493+906541128
668+902438217+908845449+920499520+927000621+924646564+916856477+909801224
658+906393857+905680605+906357541+906963573+905553671+902117250+898929164
648+897226518+895433669+891647298+887254963+885757556+888550452+894739163
638+902006365+905606035+901601836+892005619+884495202+885480999+893414068
628+899776890+898037997+891196007+887150372+889161119+893486009+893447687
618+886655641+878346888+875034773+877712563+881712820+881900074+877869657
608+873992807+874753374+880081354+884502672+882388926+875502596+869436322
##END=
