##TITLE=<SNM>
##JCAMP-DX=4.24
##DATA TYPE=INFRARED SPECTRUM
##DATE=2/5/2025
##SAMPLING PROCEDURE=Instrument type and / or accessory
##ORIGIN=Admin
##XUNITS=1/CM
##YUNITS=ABSORBANCE
##RESOLUTION=4
##FIRSTX=4497.3318
##LASTX=599.83466
##DELTAX=-1.4281778
##MAXY=1.8548946
##MINY=0.38296711
##XFACTOR=1
##YFACTOR=1.7275053e-09
##NPOINTS=2730
##FIRSTY=0.40267321
##XYDATA=(X++(Y..Y))
4497+233095219+233740413+233846615+233211788+232613777+232989932+233981040
4487+234318930+233665472+233161465+233903804+235478466+236276890+235130465
4477+232643950+230843067+231292559+233508983+235493423+235919987+235234182
4467+234466691+233871164+233133828+232225891+231553111+231536135+232186678
4457+233091027+233850013+234280149+234098644+233069859+231762977+231385804
4447+232487754+234319275+235613236+235685951+234700571+233154789+231558631
4437+230667290+231278344+233186670+234867188+234954188+233777159+232771405
4427+232630615+232663738+231997927+230914955+230440103+230821692+231221189
4417+230933431+230191559+229641731+229606572+229954659+230351257+230609445
4407+230825022+231064596+231091163+230661373+229935354+229299993+228930877
4397+228824003+229056934+229585629+229972549+229848716+229525438+229579056
4387+229949035+230030394+229448185+228238792+226664027+225263451+224687125
4377+225180246+226433493+227886030+228923924+229091507+228393160+227168810
4367+225799529+224795465+224648688+225154783+225410245+224877894+224009946
4357+223591852+223834083+224288991+224504051+224535811+224768398+225372206
4347+226060529+226308729+225785745+224698097+223627994+222963081+222681586
4337+222690074+223032623+223695673+224468374+225018150+225085017+224707551
4327+224194349+223811397+223590645+223341186+222784440+222001629+221692462
4317+222491231+224117320+225564561+226070759+225692551+225074580+224865731
4307+225194686+225631412+225742357+225524934+225254342+225137342+225131562
4297+224937395+224338659+223661273+223497434+223871639+224125549+223703729
4287+222741535+221965245+222160569+223408674+224725061+224897492+223878419
4277+222878617+222881498+223577568+224021867+223887528+223595682+223523760
4267+223734903+224315801+225271025+226088580+226062651+225160528+224132019
4257+223722844+224052264+224703083+225163133+225150056+224701513+224062943
4247+223465018+223032398+222881636+223128542+223734385+224486937+225141430
4237+225451649+225312429+225053757+225164306+225523554+225450545+224699322
4227+223893773+223842950+224714089+225874367+226512954+226507899+226453453
4217+226717679+227020066+227051844+226792293+226139404+225041198+224070344
4207+224081609+225179729+226563864+227398188+227423962+226793362+225831807
4197+225011646+224677499+224702721+224725734+224644514+224524304+224294909
4187+224055232+224278295+225114845+225856994+225746722+225050238+224661800
4177+224862298+225175019+225328214+225611055+226205478+226775886+226901237
4167+226594847+226280229+226299948+226479641+226430525+226266014+226419467
4157+226673826+226164177+224629487+223015699+222520973+223373670+224735464
4147+225697365+226104279+226260804+226269619+226048401+225601704+224954112
4137+224189725+223655321+223664430+224069499+224520422+224910465+225225566
4127+225311342+225126991+224865386+224601557+224206511+223766491+223685839
4117+224154377+224828554+225244078+225321399+225251927+225061175+224575800
4107+223861133+223403809+223576498+224098085+224391829+224326531+224212808
4097+224176856+224003304+223569718+223021806+222557081+222336380+222546281
4087+223330817+224635922+226099622+227048635+226863818+225634034+224220071
4077+223435759+223358213+223515255+223533231+223462965+223522949+223675178
4067+223612658+223169066+222600348+222377405+222707946+223296435+223689410
4057+223789660+223739060+223491862+222973053+222409234+222065978+221959639
4047+222109487+222645461+223477646+224283143+224856243+225070698+224651242
4037+223501298+222201714+221687960+222302843+223454167+224336537+224688522
4027+224690765+224546679+224411375+224404371+224468322+224416205+224222021
4017+224084646+224103105+224027853+223506198+222591946+221850349+221854628
4007+222655691+223750343+224516403+224737345+224726959+224875962+225157647
3997+225271870+225122936+224864006+224641356+224571401+224777817+225243439
3987+225788919+226219572+226328844+225974616+225336788+224832988+224691662
3977+224862868+225291761+225988366+226850638+227555885+227659275+227026639
3967+226232891+226076125+226632266+227300820+227729368+228064464+228406737
3957+228694495+228956513+229171727+229228364+229335480+229888205+230707521
3947+231162775+231177456+231259436+231562496+231685241+231350162+230737487
3937+230298433+230537903+231625826+233007080+233688676+233230110+232274972
3927+231785991+231961302+232219577+232321344+232939833+234575670+236428963
3917+236947375+235548991+233276430+231542553+230916784+231198469+232249836
3907+234391836+237697425+241160143+243296380+243601717+242361582+239878742
3897+237101036+235640821+236273957+238006489+238830514+238016840+237283041
3887+238243026+240106205+241081751+241312302+241870842+242008217+240710737
3878+239282473+239455886+241028306+242970773+244985352+246614357+246802296
3868+245847986+245154780+244832209+243794539+241845982+240150628+239880915
3858+241760103+246201714+252227027+255596292+252901756+247471677+243239226
3848+241286028+241508695+243442864+246360084+249600911+252725444+254964692
3838+255294906+254011693+252650434+251724400+250546319+248984199+247882577
3828+247738405+248460025+250422176+253941237+257355529+258066867+256874864
3818+256423095+256204706+254035966+250520821+248223039+248617153+251468799
3808+254948665+257216809+258989002+261639564+263771005+263277211+261744523
3798+261662629+262436090+262453272+262160029+263093378+265564746+268683673
3788+271808775+275077774+278720547+282809499+287702534+293789832+300775164
3778+308036834+315567250+323791527+333157657+344124292+356249133+367461018
3768+375878272+381363332+384610059+386738740+388930597+391053689+391721915
3758+390565950+389458739+390908568+396275903+404564701+412320286+417510135
3748+422209451+428738374+436563621+443283623+448750085+455212589+464258218
3738+476057728+489264249+501483767+511513672+520032228+527707834+534863164
3728+542128594+549622747+556544870+562654336+567983682+571289272+572265612
3718+573119845+575647661+579532595+583269096+584517978+581493073+575784984
3708+570803741+568463244+568517069+569180740+568588767+566857322+565742141
3698+566224290+568151886+571425456+576063908+581315312+585534790+587413150
3688+587290940+586206639+584724860+583739997+584443934+587194192+591537745
3678+596086799+596806055+590484704+582638859+580490338+583466524+584962035
3668+581349470+576016811+572752040+572007941+572287659+572817803+574051227
3658+575309114+574359135+571380982+569871876+572010943+576501307+579825252
3648+579713323+576864454+572568102+567626263+562740629+558740591+556635165
3638+557216787+560037778+563280882+565704428+568152335+571684197+574734462
3628+574619462+571808823+568571239+566917979+568554850+573008537+576392449
3618+575992728+574405714+574877064+577442557+580803835+584418056+587787166
3608+589989719+591046349+591933015+592901384+593095293+591941088+590363390
3598+590133184+592305926+596223639+599965385+602363157+604129244+606689251
3588+609935529+611740190+610737869+608081943+605835570+605349143+606812014
3578+609258229+611108573+611357204+610452803+609748383+610097350+611076830
3568+611532549+610798871+609018983+606555309+603789800+601036436+598570623
3558+597160611+597826387+600387912+602889678+603674559+603566081+604259666
3548+605534080+605843506+604716973+602956062+601223306+599940128+599630081
3538+600127274+600145630+598463111+595423231+592506046+590761696+590194462
3528+590141120+589965567+589522545+588930675+588015647+586420766+584365680
3518+582822485+582526930+583182976+584020923+584642880+584872672+584280733
3508+582397888+579467867+576754872+575411658+574946208+573798594+571608324
3498+569801386+569837545+571619537+573749875+575038160+575390956+575158473
3488+574489902+573706332+573178362+572640249+571913851+571713386+572053831
3478+571248282+568218029+564480665+562330488+562101455+562403083+562244989
3468+561858207+561591013+561195985+560398889+559165534+557588112+556236065
3458+555897691+556216157+555783692+554158414+552305518+550925075+549808686
3448+548752781+547783756+546849786+546013839+545130865+543415878+540610656
3438+538188248+537982643+539875321+541808921+542018253+540558660+538669500
3428+537507325+537553283+538478559+539447757+539721023+538875968+536703881
3418+533504113+530522579+529359783+530543868+532911933+534686300+534925615
3408+533604207+531092091+528327617+526581577+526200971+526286815+526074413
3398+525723617+525442968+524843542+523494083+521559275+519758996+518818229
3388+518845970+519280711+519563086+519656728+519736466+519758996+519650000
3378+519478105+519236927+518695190+517717988+516613088+515919606+516010419
3368+516922721+518166669+518811190+518266349+516753827+514872293+513358081
3358+513130600+514456286+516228652+517133122+517292734+517750800+518741942
3348+519507191+519272845+517642253+514777271+511738840+509824804+509261434
3338+509232900+509122248+508962428+508918782+509090436+509519450+509838640
3328+509439229+508331570+507204968+506530325+506212584+506069602+506044173
3318+505901329+505209538+503822367+502189947+500983228+500432831+500271701
3308+500379006+501149534+502796929+504497459+505016561+504137072+502762736
3298+501806063+501592004+501965572+502509896+503009918+503753809+504937755
3288+506107418+506736965+506882224+506756218+506226799+505200153+504128998
3278+503719823+504204974+505143602+505892531+505997732+505289793+504016000
3268+502812007+502170349+502014118+502031438+501999557+501646623+500806433
3258+499723443+498800790+498161582+497629196+497045193+496594580+496609244
3248+496937819+497079179+497134349+497703205+498557093+498465832+496826476
3238+494653941+493436526+493516333+493912776+493577576+492542408+491643976
3228+491334205+491080365+489981779+487828842+485409815+483810345+483520828
3218+484131226+484717368+484625279+483907921+482895939+481678282+480289973
3208+479026462+478087834+477389349+476953744+476852201+476778537+476325646
3198+475601249+474986262+474498179+473878741+473082818+472309910+471707344
3188+471277260+470901830+470274111+469025436+467216014+465536566+464649485
3178+464355966+463770479+462409324+460731117+459493449+459004434+459074924
3168+459296159+459257550+458717573+457628683+455993192+453912263+451786998
3158+450146848+449261390+449075728+449309557+449492493+449241067+448560662
3148+447557617+446120381+444317204+442698861+441717656+441169536+440530777
3138+439597807+438675810+438250349+438389674+438523547+438060098+437068887
3128+436073191+435369116+434842665+434365864+434042292+433953756+433946924
3118+433842655+433547583+432813215+431401477+429609997+428034921+426833101
3108+425812459+425059700+424785089+424713184+424310772+423609147+423302136
3098+423863885+424787952+424972580+423938481+422345774+421172592+420769421
3088+420849814+421022503+421080883+420917820+420482837+419881479+419247032
3078+418492030+417494402+416520925+416063308+416163333+416229925+415687981
3068+414593088+413392028+412291269+411186162+410104759+409306698+408927852
3058+408828758+408751712+408497147+408096011+407812670+407798213+407853143
3048+407702846+407293050+406648874+405713282+404510842+403266480+402244940
3038+401570159+401171336+400843692+400439210+399931770+399181530+397934615
3028+396342770+395106103+394721253+394884902+394934759+394611429+394144875
3018+393797358+393537720+393128822+392423264+391471800+390413825+389448871
3008+388859486+388830503+389168670+389263865+388469702+386730080+384799792
2998+383610739+383443226+383832147+384067322+383648831+382578711+381394316
2988+380669988+380397688+380064489+379352376+378522813+378061434+378142000
2978+378476613+378521915+377878705+376681302+375493319+374664756+374006226
2968+373205715+372264879+371420134+370901273+370785411+370851899+370640463
2958+369852166+368658420+367535234+366846307+366614548+366598642+366500342
2948+366170939+365686237+365154713+364517437+363747496+363101421+362829535
2938+362814009+362806245+362751972+362599191+362122010+361230341+360204765
2928+359397250+358801033+358070252+357032082+356005713+355365297+354997043
2918+354560921+354044924+353608112+353124583+352390525+351631625+351326305
2908+351555614+351873804+351834504+351410838+350871482+350431669+350079528
2898+349665799+349141866+348641051+348240019+347778192+347068735+346167370
2888+345296334+344632008+344246157+344098828+344029925+343863412+343538529
2878+343089744+342560084+341982223+341376828+340759184+340211237+339903537
2868+339945734+340215964+340399108+340210202+339594594+338757923+338005406
2858+337502555+337146412+336699559+336121836+335710488+335743818+336038890
2848+336126183+335815274+335271813+334650960+334034938+333609374+333522115
2838+333600127+333486611+333052801+332495366+332062487+331826312+331682088
2828+331436390+330911733+330104804+329272101+328741544+328588073+328575031
2818+328406275+327957284+327310830+326662237+326140374+325663470+325057626
2808+324337990+323711824+323262591+322829195+322261581+321618785+321066559
2798+320731049+320653658+320732153+320704827+320362347+319799874+319293469
2788+318912483+318480364+317980584+317698864+317778636+317910231+317728502
2778+317307735+316933305+316538242+315775132+314642699+313604046+312958213
2768+312496731+311952649+311411637+311068398+310872868+310597566+310124456
2758+309580546+309182620+308923879+308519811+307786961+306905574+306145535
2748+305545868+305008479+304491861+303974035+303399451+302795091+302318083
2738+302055686+301842076+301412682+300729516+300025890+299536668+299288106
2728+299135360+298930376+298661940+298428146+298238136+297927296+297358923
2718+296603231+295813140+295050376+294352132+293836653+293597993+293564905
2708+293564560+293468985+293227635+292838955+292356150+291878624+291492049
2698+291196529+290895936+290494421+290000333+289479333+288948207+288417235
2688+287976456+287714438+287591899+287487492+287321065+287074039+286755194
2678+286416923+286152852+285986960+285793880+285458663+285073416+284805584
2668+284627496+284374880+284013561+283652725+283360017+283124307+282922325
2658+282719877+282479268+282206209+281934771+281670476+281386324+281051262
2648+280648091+280197599+279777538+279488124+279361239+279292991+279113557
2638+278762347+278360263+278076111+277954487+277903163+277804656+277602363
2628+277302288+276946042+276609669+276399492+276370181+276412534+276318099
2618+276019403+275672714+275452411+275377676+275351540+275239353+274936552
2608+274487888+274081025+273844936+273760575+273788678+273909854+274038569
2598+274082043+274068690+274055372+273966802+273695537+273307668+272983630
2588+272800883+272716143+272699098+272734326+272740261+272634008+272469979
2578+272408218+272516334+272657315+272634042+272425660+272212291+272174907
2568+272330086+272543730+272648517+272558273+272329706+272129397+272103244
2558+272247588+272430352+272544351+272561016+272440410+272154032+271806532
2548+271546895+271369531+271187854+271029880+270975917+270984129+270913949
2538+270662523+270231577+269720807+269270988+268976847+268829018+268720781
2528+268532514+268249345+267976700+267823402+267808289+267885853+268000749
2518+268071411+267964417+267608895+267167528+266936839+267005207+267165337
2508+267211399+267153002+267100109+267094899+267092794+267027479+266878425
2498+266690037+266531046+266445667+266422602+266396379+266309483+266172315
2488+266035526+265927807+265836373+265725808+265588622+265480472+265445899
2478+265413846+265243865+264873904+264378954+263916264+263641428+263619156
2468+263764450+263898495+263899634+263794364+263690751+263647415+263610237
2458+263449642+263088340+262620665+262237661+262024517+261933618+261915176
2448+261933497+261909655+261779078+261559154+261310212+261096723+260963005
2438+260877437+260767044+260641400+260573377+260543721+260429481+260171983
2428+259869630+259667872+259594829+259555616+259485712+259435803+259452623
2418+259460128+259368263+259251762+259284040+259502946+259774177+259972467
2408+260069991+260084241+260064488+260086069+260177745+260307132+260446163
2398+260585298+260764232+261220090+262436521+264960748+269247646+275695331
2388+284704058+296680933+312052191+331157293+353947866+379820930+407855661
2378+437152937+466912247+496342568+524542535+550306672+572240252+589604248
2368+602787410+612246354+617740937+619284822+617621693+613275657+605999323
2358+595069848+579820491+560035846+536425853+512201702+492912111+482923093
2348+483571789+493671321+509380125+524689588+535068769+540146241+542178279
2338+543430577+544762646+546063766+547221352+547883229+547199753+544886375
2328+541749162+538365457+534101089+528111626+520711322+512965088+505247078
2318+497037292+488054977+478848080+470027758+461337927+451847482+440965035
2308+428966993+416641549+404759300+393800325+383810306+374427995+365239453
2298+356170190+347470353+339381709+331925509+324973507+318408252+312198105
2288+306395615+301115056+296484436+292558581+289247437+286339515+283635646
2278+281097341+278853333+277017722+275517035+274165938+272893801+271763265
2268+270775763+269852162+269009229+268333861+267767454+267121518+266327028
2258+265518011+264852028+264340396+263881537+263418123+262981414+262574517
2248+262128907+261626211+261156880+260805170+260540892+260253445+259885277
2238+259526926+259328877+259298738+259262717+259067722+258759072+258513702
2228+258428082+258421199+258357367+258196703+257983697+257769983+257591756
2218+257461334+257368468+257319318+257333171+257376490+257363983+257256367
2208+257123253+257069238+257099222+257135968+257193209+257369469+257613373
2198+257715433+257617047+257514055+257592326+257832193+258082928+258205139
2188+258155023+258004588+257882188+257862659+257898611+257870578+257727441
2178+257548696+257453415+257499046+257650895+257778937+257734082+257500719
2168+257230420+257099015+257170574+257357600+257468355+257348542+257021037
2158+256665342+256463326+256463671+256560452+256593645+256480111+256254684
2148+256009883+255834175+255805606+255988370+256375635+256875157+257441546
2138+258176622+259189898+260412626+261673894+262916186+264237249+265757344
2128+267530607+269581776+271936058+274560621+277359702+280289981+283365140
2118+286484101+289406549+291945733+294027835+295553365+296367298+296380823
2108+295609157+294101397+291936797+289315546+286546673+283859745+281280485
2098+278752203+276303297+274038224+272036117+270309054+268829087+267567663
2088+266493161+265551687+264713946+264020878+263504122+263100503+262727850
2078+262396808+262168482+262038111+261933635+261822638+261759031+261809389
2068+261987202+262253257+262509219+262629205+262588077+262508340+262535183
2058+262734595+263081181+263432769+263590777+263508194+263370681+263399871
2048+263640600+263976162+264304461+264630138+264954107+265172012+265206826
2038+265154381+265165198+265272417+265431011+265628180+265866995+266097943
2028+266250034+266351439+266540448+266886154+267301694+267715044+268152908
2018+268568708+268814578+268872509+268899560+269017130+269229187+269483977
2008+269680939+269715304+269601426+269461325+269394027+269444005+269626424
1998+269902623+270236563+270685710+271261156+271728055+271799563+271514031
1988+271179573+271030743+271112291+271338892+271540684+271592784+271564992
1978+271633033+271847712+272085785+272212188+272257836+272429403+272875341
1968+273445267+273827788+273944737+274003427+274159002+274369110+274585757
1958+274873152+275285777+275764010+276195733+276529431+276816792+277151336
1948+277607384+278279681+279234629+280228910+280693411+280368821+279710723
1938+279303584+279242944+279299547+279347955+279456364+279716157+280099713
1928+280538836+281127808+281982886+282869518+283440961+283848100+284417647
1918+284852043+284593079+283847393+283377527+283550630+284133822+284685944
1908+284933712+284929210+284905437+284994887+285178634+285436322+285814996
1898+286363081+286998166+287507193+287866425+288375693+289136319+289692150
1888+289628802+289188160+288849631+288774276+288880736+289070970+289299916
1878+289595299+289984807+290474926+291280165+292838506+295204881+297442145
1868+298149187+297058019+295337340+294149425+293816158+294088872+294601349
1858+295095057+295497711+295873831+296301741+296863904+297665105+298795641
1848+300408946+302610361+304794041+305538415+304358057+302634410+301765961
1838+301909737+302458546+303038547+304007124+305853603+308143208+309611634
1828+309822415+309594865+309349478+308693087+307671858+307019090+307118563
1818+307625416+308105392+308652787+309676121+311177359+312520090+313118861
1808+313163853+313355898+314220758+315825507+317766007+319325005+320024801
1798+320205253+320830936+322645569+325308776+327111332+326615899+324852642
1788+323913876+324486665+325852479+327265838+328643451+329926733+330804600
1778+331487524+332961402+336040822+340238115+343475146+344005359+342540797
1768+340686865+339360834+339310666+340932943+343324988+344953268+345702611
1758+346490839+347446753+348480955+350439018+354025430+358216926+360866228
1748+361273195+360682981+360450843+361230893+363066780+365300835+366986356
1738+368373906+370977319+375152736+378263382+377724095+375226401+373169486
1728+372070315+371903042+372605875+373838575+375681879+379077660+384561719
1718+390449709+393145866+391500128+388162485+385625629+384847027+386079175
1708+389091659+392796727+395871283+398617573+402616679+407869083+411809878
1698+413000967+412386808+410217413+407309301+405894010+406880805+409440157
1688+413104028+418683006+425797623+430198865+428913099+425529981+423951213
1678+425283592+428858480+432732995+435357489+437498557+440264860+442543527
1668+442835114+442593246+444142721+447449276+450443922+451875291+453061170
1658+456044464+461997078+471079798+480726750+484871805+484081921+484908102
1648+488893096+492890650+493865955+493401057+494395994+497733879+503392870
1638+511305203+520304873+527044991+529735041+531449993+535445683+542332682
1628+551034036+560519858+570770825+581702439+592242854+601969820+612367253
1618+624667476+636946858+645540113+650843824+655963494+661998812+668109831
1608+673431207+677850460+681444531+684113914+686038991+687915557+690230591
1598+692838282+695658169+698979181+702754809+706479303+709877810+713055288
1588+716148717+719142707+721807949+723906440+725651135+727745140+730868035
1578+735100072+739488479+742885882+746200476+751526959+759584240+769010820
1568+777482624+784459331+791326455+799358894+809416677+822811551+839392806
1558+852304771+856125530+856295079+857711785+860760152+863764286+865038355
1548+864513629+863722192+863803344+864577115+865284640+864039898+858578715
1538+851581030+847433594+845924420+844210088+840878725+837702627+836502533
1528+836729081+836854604+836741986+837406588+838424367+838103486+836638959
1518+835402705+834092753+832217705+831001394+831902414+835079823+839658757
1508+843512984+842856731+837141465+831331867+828073720+826783779+826614782
1498+827021921+827319270+827355844+828227535+830747105+833688512+834257747
1488+831406049+827392831+824573842+823370160+823047071+822878902+822897050
1478+823715193+825548630+827595297+828335462+826791577+824111291+822543461
1468+822832115+823958027+824413264+824016752+824584745+827781684+833022184
1458+836648137+834181495+827325826+821652033+819062077+818801853+819409870
1448+819273375+817790975+815793510+814201458+813321141+813400084+814554841
1438+816034205+816467290+815642937+814955562+815232141+815981415+816439342
1428+816488613+816403942+816246055+816309403+817500664+820029481+821849875
1418+820232912+815850854+811789056+809595611+808951435+808954195+809043766
1408+809256651+809629356+809622524+808802104+807777908+807505884+808177249
1398+809304265+810275810+810461782+809553103+808205473+807347928+806944515
1388+806184062+804864380+804224827+805775957+809697534+814757030+819428502
1378+823003873+825713831+828083519+830456932+832967807+835487445+837458343
1368+838423263+839084415+840902532+844078838+846887269+847930925+848015251
1358+848337995+848539564+847711346+846065400+844553327+843580817+843037597
1348+842937399+843292093+843974500+845248845+847710863+851170924+854257176
1338+855816035+856162931+856302049+856728302+857463637+858530341+859928277
1328+861491208+863131495+865002265+867112211+869213393+871447689+874547122
1318+878881358+883704782+887839866+890824057+893061872+895229025+897880673
1308+901332660+905333319+908923181+911286174+912792865+914508714+916633359
1298+918236037+918682993+918615505+919065704+919991842+920410643+919822086
1288+918725225+917632092+916291638+914180243+911333996+908493546+906580544
1278+905932848+906014621+906106124+906132001+906493734+907482668+909269594
1268+911951812+915088646+917636508+918856131+919006703+919058251+919980801
1258+921987996+924287642+926046551+927442900+928967049+930165625+930140507
1248+928931787+927793730+928067755+929811483+931773824+932648069+931934541
1238+929731090+926563825+923453145+921399301+920801220+921545802+923130884
1228+924629017+925195286+924676701+923550168+922559509+922274512+922668332
1218+923397939+924322766+925229099+925660045+925574891+925441915+925598491
1208+926235215+927553656+929324158+931012957+932687334+934917490+937644562
1198+939916398+940848677+940472522+939749264+939913085+941408252+943366797
1188+944767977+946154458+949153554+954222573+959899609+964136339+965842528
1178+965591413+965281366+966549018+969279609+972001299+973368458+973148534
1168+972390980+972496836+973501641+974102551+974152098+975328867+978533258
1158+982486233+985167761+985648738+984900568+985035752+986799561+988478975
1148+988734989+989046071+991466478+995595489+999087155+999772873+996874458
1138+991977403+988720153+989516765+993107387+996688554+999474006+1002456058
1128+1005760784+1008412640+1009883102+1010240763+1009860053+1009762340
1120+1011158620+1014237281+1017997727+1021506990+1024454331+1026156794
1111+1025365426+1022307398+1020047362+1022107416+1028873239+1037087096
1103+1042590719+1043430667+1040614231+1036344033+1032793988+1032282028
1094+1036129837+1042009200+1045094141+1044095546+1042449876+1042692780
1085+1043685716+1043746994+1043616709+1044670095+1046818685+1049369929
1077+1052003152+1054224337+1055156823+1054987550+1055387513+1056894548
1068+1057551146+1055728957+1053159565+1052705640+1054269122+1055743656
1060+1057018346+1060005987+1064673250+1068004889+1067401840+1063638703
1051+1060688670+1062277961+1067541165+1071830478+1072338297+1070278036
1043+1067182054+1062639832+1057287472+1054140011+1055186634+1059551717
1034+1065144013+1070097791+1073052171+1073741823+1072831143+1070763912
1025+1067863357+1065039054+1063371716+1063286217+1064132583+1064536134
1017+1063617518+1062049756+1061304968+1061743229+1062604086+1063265032
1008+1062945393+1060990298+1058202430+1056445039+1056616796+1057830347
1000+1058734540+1058687133+1057540036+1055558925+1053933336+1053717138
991+1054518788+1055406420+1056506731+1058422216+1060506216+1060643056
983+1056727759+1048996741+1041072849+1036992833+1037201992+1038579157
974+1038279462+1036322503+1034352502+1033584045+1034225254+1035728701
965+1036733230+1035145457+1029987972+1023576636+1019490479+1018214339
957+1017353137+1015550339+1013706827+1012553727+1011348250+1009039634
948+1005419202+1001048047+996586424+992289658+988732229+987352166+988912198
938+991694614+992534977+990172121+986441624+983744431+982812497+983124959
928+983869540+983857947+982034861+979043631+977078116+977698002+980335228
918+982673586+982469327+979576500+976196833+974801519+976014586+978622208
908+981082570+982569731+982485543+979966664+975128955+970055175+966921722
898+965955768+966246493+967410841+969211845+970745862+971309232+970957298
888+969522237+966480218+962595491+960120016+960234360+961962562+963958647
878+965711277+967019229+967901064+968670971+968433864+965069723+958704553
868+952875357+950613734+951564093+953442660+954578716+954939828+955780259
858+957978810+960448281+961117783+959581213+957520675+956433545+956140198
848+955723881+954874134+953618351+951790711+949866669+949248714+950760856
838+953436588+955400033+955760455+955461035+955931246+956995535+956961515
828+955254705+953788867+954661938+957813056+961525750+964147104+965023005
818+964390284+962997730+961731735+961008822+960804976+961389255+963450621
808+966725399+969114201+968427171+964480199+959035163+954815547+954095739
798+956585498+959200572+959584249+958732638+958517131+958808063+958620572
788+958063895+957665244+957536271+958210810+960528881+963725750+965302758
778+964093141+962113203+962294691+965637026+970800722+975169393+976884552
768+976705135+976524131+976121477+973666498+969773490+968079101+970489433
758+974374713+976091114+975722136+975487168+975238400+972859466+968430690
748+964836204+964075200+965648619+968383006+971727274+975094107+977588903
738+978437477+977588972+975787761+974203162+973740749+973824040+973299521
728+972398501+972038977+971717337+970275306+968425515+968788075+972292990
718+975848280+975338252+971088480+968171915+970294904+975738836+979420408
708+978155792+973717149+970781400+971344701+971988464+968873022+963765429
698+961184926+962079873+963614649+963054454+960183019+956683487+954122997
688+952619618+951271367+949352569+945960549+939884448+931897553+925331988
678+923411051+926897472+933911235+940965367+944719810+944334960+940932106
668+935074894+927470434+921711211+921049299+924552834+926733305+923063533
658+917329636+916394389+920485377+924066475+925139321+927892961+935039976
648+942974288+945276280+939477516+928555080+917652449+911244494+910112510
638+910142735+907597081+904869939+906558738+911188461+911716362+905215386
628+895810820+888477004+886052042+889585595+897556480+904461351+903907849
618+895409477+884416586+876552730+874394617+876361374+877313942+873434666
608+867745278+867349939+873359587+878078604+876421134+871943226+869965358
##END=
