##TITLE=<SNM>
##JCAMP-DX=4.24
##DATA TYPE=INFRARED SPECTRUM
##DATE=3/5/2025
##SAMPLING PROCEDURE=Instrument type and / or accessory
##ORIGIN=Admin
##XUNITS=1/CM
##YUNITS=ABSORBANCE
##RESOLUTION=4
##FIRSTX=4497.3318
##LASTX=599.83466
##DELTAX=-1.4281778
##MAXY=1.7128441
##MINY=0.17975162
##XFACTOR=1
##YFACTOR=1.5952104e-09
##NPOINTS=2730
##FIRSTY=0.20083733
##XYDATA=(X++(Y..Y))
4497+125900212+126046224+126139496+126061955+125831414+125364243+124566346
4487+123642232+123149970+123694262+125375760+127426628+128588354+128156100
4477+126656447+125294483+124809927+125169806+126086036+127137312+127682408
4467+127420313+126766187+126225342+125887658+125791770+126153573+127010375
4457+127962364+128223403+127048095+124588831+122124083+120963581+121379936
4447+122775136+124366641+125466463+125616754+124779288+123270116+121614466
4437+120528319+120558463+121478037+122411998+122748598+122615645+122414155
4427+122294990+122136311+121762066+121175187+120598490+120162210+119734579
4417+119293208+119084293+119179152+119316169+119297533+119122367+118780797
4407+118323733+118012055+118064702+118358613+118625126+118821973+118973058
4397+118744077+117775499+116460969+115666791+115647464+115909521+116023503
4387+115990977+116007978+116194334+116367156+116124939+115362277+114446719
4377+113808109+113633018+113802439+113963883+113993849+114286845+115151176
4367+116170010+116584105+116104332+115082369+114023554+113184594+112690959
4357+112682075+113026466+113302050+113434714+113806605+114433305+114728945
4347+114364853+113734967+113421057+113604490+113968422+114037566+113730185
4337+113445774+113478514+113662966+113740955+113682676+113491433+113148107
4327+112963796+113467109+114577720+115397634+115295553+114720752+114464458
4317+114650899+114916450+115047731+115090028+115197975+115511279+115961711
4307+116308166+116491982+116681683+116947057+117246068+117603107+117911843
4297+117816992+117208871+116524153+116268167+116617023+117548751+118830203
4287+119879237+120143836+119576900+118569490+117635997+117083139+116777262
4277+116516755+116588990+117385467+118608471+119478276+119588259+119149111
4267+118619260+118322649+118244174+118182877+118166894+118483168+119223252
4257+120078681+120705764+121034266+121065727+120702906+120107078+119863488
4247+120322168+121131078+121829677+122369719+122730513+122723050+122492164
4237+122524381+122886483+123067712+122819516+122593338+122843598+123416259
4227+123973676+124480025+124888655+124941442+124646158+124401568+124430348
4217+124530626+124455186+124199341+123922869+123737335+123583074+123358998
4207+123147597+123134538+123352384+123689844+124085565+124587626+125227095
4197+125850452+126136423+125891758+125321815+124962777+125302965+126299109
4187+127254105+127448402+126935113+126416472+126370186+126654504+126952133
4177+127234423+127623615+128036607+128313966+128584973+129077440+129615651
4167+129759963+129424615+128920331+128453430+128033254+127807020+128029359
4157+128606990+128992258+128767817+128190868+127884720+128070479+128442529
4147+128772562+129154000+129566834+129735060+129589272+129444007+129566311
4137+129906162+130323022+130757630+131125757+131301362+131308377+131362267
4127+131557862+131605539+131138994+130286442+129640527+129637211+130232188
4117+131131352+132033188+132670855+132891214+132744968+132423790+132120939
4107+131949491+131944456+132133326+132539172+133069042+133555522+133989691
4097+134450277+134706216+134275129+133101773+131801489+131061592+131150922
4087+131988070+133234306+134331999+134843672+134786849+134517234+134398349
4077+134579372+134901989+135081648+135075146+135046207+134967573+134644237
4067+134129809+133727689+133606861+133729174+134066793+134620025+135282175
4057+135878003+136311051+136588232+136719933+136641598+136265438+135668302
4047+135225848+135366386+136033029+136555351+136343801+135603110+135029122
4037+134928919+135055801+135304519+136012058+137264758+138382011+138607143
4027+138095181+137769724+138294540+139467298+140535398+140874137+140414803
4017+139630750+139085132+138891919+138693231+138225266+137726119+137601928
4007+137873692+138254298+138673223+139395072+140550867+141724811+142222286
3997+141778803+140802462+139925605+139617196+140131466+141289942+142330569
3987+142555355+142130154+141773395+141789677+141855326+141706624+141646355
3977+142162455+143225987+144243429+144681942+144514249+144059333+143609891
3967+143278746+143115341+143233292+143675952+144237311+144633583+144781874
3957+144724276+144449580+144027526+143784983+144075428+144801435+145357871
3947+145370406+145285364+145703719+146474441+146980762+147010943+146807502
3937+146601061+146639071+147267723+148501629+149679973+149978919+149335834
3927+148454727+147877525+147493771+147179832+147390691+148467888+149789695
3917+150283283+149664261+148606334+147819031+147470707+147437518+147929565
3907+149606140+152673198+155980745+157845891+157947990+157049255+155417499
3897+153286344+151793622+152001940+153477755+154350063+153552195+152646043
3887+153505162+155634383+157250876+158200277+159169724+159040853+156789066
3878+154348550+154039113+155790867+158340338+160938721+162708988+162601471
3868+161474158+161178939+161754655+161656012+160211920+158481297+157852728
3858+159380013+163879271+170688792+175008419+172098228+165488403+160190006
3848+157746837+157929233+159873601+162617594+165701924+168952844+171440234
3838+171766709+170147657+168315756+167081225+166111516+165324147+165076531
3828+165273705+165684530+167139682+170616678+174597276+175669532+173908046
3818+172471147+171887117+170484182+168315644+167032688+167689635+170302366
3808+173656039+175989730+177496276+179583173+181476632+181154809+179420150
3798+178338385+177712581+176497330+175099159+174615118+175341189+176955328
3788+179253261+182146787+185306780+188428961+191608215+194743735+197168464
3778+198793476+200687402+203871739+208644189+214748507+221209433+226812016
3768+231579946+236357403+241342441+246776266+253654351+262222725+270949487
3758+278547460+286158717+295887733+308664442+323486032+337323134+347945934
3748+357017947+367252825+378551665+387732671+393925692+400349254+409784863
3738+422674060+437273366+450723444+460978799+467758708+471998225+474925268
3728+477433639+479879274+482311607+484792590+487164990+489189375+491320324
3718+494658193+500378998+509501565+521890036+534501575+543162837+547961817
3708+551964217+556628721+562290639+569240035+576641732+582561915+586066169
3698+587838790+589343917+592169963+597105959+603193014+607831512+608745528
3688+606993981+605721375+606085008+607412279+609154112+611587380+615202345
3678+618994718+619671281+615753437+611815491+612297908+616177864+619134910
3668+618819552+616867841+615776193+616720138+619621773+624298084+630449294
3658+636263101+639041469+639072183+640277121+645566326+653632256+659118523
3648+658378327+654861257+653115875+653451934+653764154+652936001+652656513
3638+655965386+663418907+671299507+675562303+677254179+680427866+684716892
3628+684364318+678286268+671807369+669332403+671947487+678044966+684498457
3618+688786661+690999850+692508937+694026918+695978404+699122723+703365715
3608+706556665+706813511+705667085+706077574+708850637+712300002+714384357
3598+714566846+713633325+712833122+712757047+713026746+713516000+714520215
3588+715816772+717015658+718913563+722556178+726760087+728589465+726921278
3578+723632507+720790992+719105020+718508753+718421394+718218803+718172321
3568+719159722+721242508+723343603+724587027+724753525+723835996+722353960
3558+721020935+719760024+718143475+716625345+716761353+719664968+724184684
3548+727739118+729257472+729721318+729310904+726944818+723367591+721407885
3538+722721629+726250656+729512524+730382600+728283373+724210017+719575666
3528+715714318+714013400+715127019+718332093+722617307+727122824+729795375
3518+728558153+724974425+723195639+724613033+726426345+726057181+724406630
3508+723379772+723105365+722972571+723146018+723981868+724711153+724014450
3498+722047270+720069031+718722554+717872432+717606245+718055594+718688627
3488+719292741+720710584+723534911+726419320+727250835+726500701+727003032
3478+729340721+730182848+726992794+722037481+719378082+720121715+722457087
3468+724661084+726597924+728410039+729090153+728040203+727269667+729351706
3458+733841754+737722681+738747895+737373620+735528698+734071846+732156678
3448+728914165+724927869+722220717+722481972+725538035+729710856+732851364
3438+733557856+732125591+730270580+729512076+729800980+730064999+729802250
3428+729449676+729412909+729523360+729378011+728745500+727594516+726033492
3418+724493092+723582439+723523701+724249325+726040516+729126172+732234770
3408+732896575+730573309+727653254+726093350+725403896+724508636+723375363
3398+722431230+722289469+723999728+727787094+731884364+733928440+733068453
3388+730318781+727502524+725914448+725723514+726510415+727544896+727732542
3378+726933534+726535076+727198076+727336475+725526975+723203560+722969582
3368+725225367+727829242+728944580+729250821+730490360+732519714+733382840
3358+732627026+732493932+734723263+737863995+738690877+735808186+731310068
3348+728816568+730145408+733860586+736740960+736609436+733639237+729408052
3338+725655585+723948763+725212439+728452187+731119283+732122004+732804060
3328+733879193+734085148+732967120+732288127+732997759+733067332+730514721
3318+726832798+724867637+725164014+726511163+728217237+730078899+731557497
3308+732481453+733531477+735356969+738161269+741684093+744134772+742850097
3298+737948140+733066062+730849958+730466072+730069483+728987325+727227594
3288+725251298+724363063+725420710+727691142+729981452+731939514+733184209
3278+732643242+730288814+727959271+727403881+728590810+730397620+732204206
3268+734039488+735457481+735636308+734731857+733657695+732628296+731468345
3258+730809455+731232125+731912387+731752242+731186091+731297588+731979270
3248+732517323+732686959+732214593+730899354+729839615+730518009+732139939
3238+732166767+730104008+728196537+727767814+727557525+726467820+725672922
3228+726899009+729894392+732709826+734157112+734655708+734566182+733235623
3218+730447091+727739043+727323398+729980256+733974100+735939336+733941742
3208+729740374+726945864+727081573+727852034+725927824+721452946+718210284
3198+718636242+720676058+721113002+720075084+719691124+720481014+721564293
3188+722409634+722855769+722790605+722300304+721329419+719452213+716746407
3178+714373222+713271859+712807265+711770692+710195320+709049268+708675471
3168+708733685+709165323+709949534+710263772+709186023+707227437+705967871
3158+706063600+706671599+706801853+706296233+705426904+704298414+703096764
3148+702372336+702168773+701354072+698916096+695775439+694230631+695282150
3138+697282135+697947228+697030745+695816017+695109450+695079334+695828871
3128+696860885+696840409+694949977+692109583+690179096+690144720+691251838
3118+691808124+690867429+689020041+687640609+687602422+688624049+689701051
3108+689968583+688948674+686475576+683162593+680629935+680229310+681520262
3098+682749338+682825637+682111597+681320361+680631131+680135151+680161904
3088+680614017+680732090+680030081+678728517+677002490+674806339+672630066
3078+671376703+671199893+671193840+670451925+668964210+667408716+666537893
3068+666777251+667920164+669090653+669447112+669126149+669046039+669621830
3058+670046966+668944781+665867718+662256714+660304405+660515965+661233069
3048+660972786+660058994+659455478+659421028+659737657+660011017+659714117
3038+658779176+657676617+656532209+655154645+653865263+653053326+652318138
3028+651182772+649965279+648976981+647722646+645786779+643744346+642451526
3018+641963692+641659542+641245616+641129112+641493942+641492223+640112716
3008+637713750+635882279+635644340+636383490+636720146+636098845+635064364
2998+634162977+633250306+631908687+629994117+627756790+625906674+625283019
2988+625789050+626095404+625210681+623740602+622780814+622433845+622147332
2978+621663047+621039541+620448618+620287538+620877565+621775478+621768976
2968+619904064+616607147+613638779+612526804+613114290+614048446+614406475
2958+614177616+613445790+612130514+610540307+609176568+607800387+605662002
2948+602961427+601052126+600657180+600784669+600165721+599046460+598596701
2938+599156798+599911940+599838593+598535684+596546459+595024518+594672019
2928+594877600+594222895+592109245+589588582+588088723+587694824+587437941
2918+586931238+586661053+586682687+586146055+584483510+582302380+580604750
2908+579550802+578522636+577230077+576065193+575264766+574487654+573527230
2898+572762336+572516924+572436627+571791749+570237114+568182052+566471531
2888+565697371+565695503+565777518+565533377+565090567+564414340+562999673
2878+560735668+558390245+556747765+555957613+555848433+556164800+556459533
2868+556245172+555270101+553605389+551728595+550344903+549727937+549422667
2858+548866380+548048540+547352323+546881527+546092570+544360004+541975311
2848+540028794+539149750+539000702+539084026+539279892+539459953+539241855
2838+538376375+537174874+536272141+535951215+535885042+535577306+534817494
2828+533637216+532108176+530283319+528279596+526462025+525355842+525060585
2818+524920094+524163495+522767286+521339766+520283912+519444289+518533747
2808+517527888+516530249+515537729+514539679+513613818+512821200+512175350
2798+511605388+510839635+509584216+507920812+506256250+504924196+504029796
2788+503425757+502696136+501495494+499982894+498628048+497623758+496796615
2778+496058549+495545120+495183504+494561493+493523425+492464769+491687956
2768+490936999+489898782+488618105+487163906+485526546+484014543+483070635
2758+482553058+481819028+480617340+479329937+478281669+477380132+476468806
2748+475564766+474723648+473970337+473302517+472583993+471567858+470135854
2738+468444576+466840283+465613187+464727866+463846843+462712934+461386897
2728+460053349+458795091+457684647+456887284+456409874+455840174+454701445
2718+453136572+451830039+451141444+450756998+450251191+449518506+448605984
2708+447533279+446334244+445082562+443899855+442940628+442235517+441564783
2698+440574542+439073301+437307031+435875812+435180267+435020757+434932314
2688+434726622+434426246+433876050+432793407+431185526+429479526+428155133
2678+427340656+426827301+426393908+425951509+425432924+424791371+424086634
2668+423362580+422516343+421504804+420547034+419875290+419406176+418839875
2658+417986278+416921494+415908909+415143156+414556305+413994377+413482666
2648+413059623+412487867+411505772+410263917+409168233+408392914+407803896
2638+407227022+406628364+406157194+406001346+406035497+405781230+404942802
2628+403739059+402511851+401361914+400345705+399603865+399092715+398551001
2618+397855942+397096989+396304669+395495199+394928039+394855813+395027803
2608+394904761+394356882+393696422+393082445+392389740+391585837+390790752
2598+390061205+389427275+388982747+388721193+388448468+388008872+387485466
2588+387075986+386811481+386516262+386097739+385688558+385357469+384939320
2578+384354711+383806420+383472454+383295756+383183139+383110091+382981967
2568+382692353+382325281+382023075+381705027+381209682+380644391+380274517
2558+380114147+379913760+379523523+379054296+378713006+378605508+378680051
2548+378820169+378965929+379075034+379010990+378638314+378039021+377508255
2538+377296808+377377329+377483332+377386296+377076057+376678421+376356150
2528+376280785+376469029+376661644+376599581+376343296+376116231+375963334
2518+375748450+375399463+375008553+374686842+374402758+374069277+373747604
2508+373584246+373559585+373476037+373183060+372708079+372208700+371818985
2498+371502282+371140927+370798330+370711045+370954290+371278952+371363060
2488+371140852+370806737+370520186+370208377+369742700+369243619+369032247
2478+369226021+369516046+369474309+369026829+368468226+368054524+367779818
2468+367532202+367267697+367022360+366864307+366803552+366737976+366564492
2458+366302341+366049195+365900782+365887966+365878774+365676631+365328428
2448+365090863+364991585+364768704+364349024+364013301+363984119+364150392
2438+364267344+364211745+364017598+363799799+363632965+363471512+363231929
2428+362910144+362548192+362185305+361918596+361884220+362108072+362478320
2418+362853686+363091401+363061957+362787550+362466064+362223343+361979650
2408+361666159+361383869+361223873+361122540+361036601+361073293+361278463
2398+361449892+361366980+361129639+361074900+361364514+361783559+361951813
2388+361639332+360834980+359558152+357693464+355074867+351690667+347698430
2378+343257330+338468775+333449306+328314343+323146610+318132148+313627528
2368+309910370+306897314+304224931+301785087+300251394+300722639+303658556
2358+308533068+314556640+321394689+329310636+338454277+347638160+354513873
2348+357232009+355745079+351995825+348506816+346157694+344043223+341188107
2338+337508501+333547613+329787336+326348732+323306643+320955877+319579098
2328+319134607+319292772+319708231+320287497+321239551+322801846+324927190
2318+327267532+329375875+330942280+332010464+332999696+334388731+336329045
2308+338554901+340589897+342056464+342900160+343350928+343671780+344007801
2298+344442091+345024047+345693512+346304425+346773764+347128767+347399624
2288+347568438+347661775+347771665+347907224+347946009+347807198+347555323
2278+347310285+347180293+347218704+347306399+347220273+346941868+346698810
2268+346635440+346682034+346749925+346812960+346820283+346710954+346482992
2258+346175255+345852349+345624125+345606564+345833928+346189641+346423881
2248+346340071+346016455+345754566+345792043+346149549+346696867+347237162
2238+347587867+347724025+347812878+348022158+348345587+348664159+348913158
2228+349130471+349352231+349543090+349709812+349974952+350370346+350680212
2218+350714363+350602082+350600849+350777435+351064546+351462667+351999673
2208+352582676+353039983+353312820+353525762+353843960+354324919+354923727
2198+355545962+356092123+356549990+357020338+357586601+358224828+358876245
2188+359516640+360144517+360760587+361335332+361789127+362078068+362302481
2178+362670300+363332964+364220676+365029174+365492833+365733574+366191554
2168+367134005+368394618+369670362+370878701+372139276+373644403+375664715
2158+378417974+381784613+385343494+388756578+391960979+395035949+398067090
2148+401059072+403884259+406463510+409002072+411808090+414901630+418046995
2138+421110120+424137375+427161081+430216770+433524523+437327358+441466476
2128+445412119+448872506+452087295+455328874+458408627+460888451+462534742
2118+463353964+463352320+462462329+460687690+458230173+455425126+452579613
2108+449949732+447798270+446288509+445343779+444727410+444177887+443369949
2098+441869791+439304028+435611269+431087556+426148683+421047684+415850433
2088+410625122+405532717+400758959+396459210+392711151+389458624+386583929
2078+384049403+381878997+380058399+378571469+377432927+376551306+375687283
2068+374700667+373730865+373002476+372536912+372175594+371828513+371575218
2058+371498059+371494285+371343145+370961912+370484204+370059031+369734406
2048+369604077+369854720+370523026+371389141+372306296+373512804+375408542
2038+378121560+381519922+385552513+390254643+395401376+400450027+404876741
2028+408355026+410646831+411584724+411183351+409661149+407367289+404657635
2018+401745538+398669634+395415687+392050841+388770029+385813281+383265453
2008+380968044+378706729+376423481+374194337+372122238+370296932+368745958
1998+367427356+366363021+365669718+365305449+364923058+364168178+363021043
1988+361725794+360574399+359818398+359520638+359433653+359225755+358832192
1978+358434444+358143410+357849910+357399927+356868450+356570653+356672509
1968+356847974+356579546+355835203+355131064+354874742+354961802+355038624
1958+354903326+354584007+354211629+353905126+353704104+353577550+353503268
1948+353536336+353811303+354389747+354980260+354989265+354162906+352970783
1938+352065062+351679644+351660252+351751609+351780529+351726537+351663278
1928+351700456+352036216+352779588+353615961+354103608+354335307+354618681
1918+354654476+353932589+352775403+352038906+352063642+352487769+352783025
1908+352758776+352624225+352604982+352638984+352581928+352498979+352534176
1898+352663608+352733965+352696115+352794945+353352651+354163167+354437088
1888+353783130+352813627+352300609+352336479+352525956+352539519+352379673
1878+352272212+352332406+352499987+352935212+354093071+356027781+357798534
1868+358103169+356790171+354963520+353579530+352811385+352445995+352300161
1858+352297732+352433478+352708707+353064569+353470126+354023311+354911359
1848+356397804+358586519+360692509+361081999+359347602+357194159+356179556
1838+356307344+356686260+356856718+357399553+359052196+361383159+362943660
1828+363150437+362784636+362293626+361415068+360328950+359686948+359665015
1818+359901235+360189616+360775982+361924238+363388824+364487385+364813393
1808+364695768+364781296+365505388+366988806+368971081+370742507+371628163
1798+371838602+372483330+374531479+377700907+380127898+380111345+378536084
1788+377601853+378270496+380082014+382287506+384523898+386508602+387935338
1778+389062483+390841793+394124398+398629467+402483641+403908247+403460991
1768+402666317+402337096+403095564+405306287+408091455+409985736+411037666
1758+412328768+414017169+415897364+418646700+422842238+427428949+430386668
1748+431199389+431120773+431324635+432286031+434072290+436262911+438167654
1738+440143091+443750509+449426514+454331161+455255228+453655457+452216951
1728+451734422+452424587+454459434+457503242+461295166+466411074+473368615
1718+480790077+485254119+485256062+483212696+481932542+482666535+485586404
1708+490353773+496051898+501400476+506330419+512203784+519176907+524764619
1698+527543100+528852697+529251453+529188344+530540463+534379990+539919988
1688+546370452+554489626+564322610+571774860+573361555+572606749+573875880
1678+578417454+585269776+592152289+597540362+602448073+608085928+613251979
1668+616185748+618233710+622133731+628465599+635166071+640031859+643566789
1658+647939661+654937930+665486523+677820927+685427793+687048452+689150668
1648+694043732+698722995+699808964+698933956+699520583+702688890+708071507
1638+714756585+720357711+721022654+716824649+712691808+711450775+712389378
1628+713568834+713976708+713779272+712760634+710620830+708715526+708705886
1618+709886687+709233476+705180073+699877865+695343054+691716730+688596997
1608+685722826+682955741+680349027+678177163+676674801+675844556+675635313
1598+676019647+676647450+676810136+676112611+674838846+673443721+672083046
1588+670696889+669250798+667846406+666631155+665760855+665701296+667220098
1578+670426966+673630097+674612042+674486870+676215738+680209432+683923713
1568+685271235+685792324+688042056+692995950+701057993+713044083+727598402
1558+737631885+740491410+742716854+747887015+755278885+763346384+771415900
1548+779712594+788848949+799001999+809427438+818982278+825639781+826164531
1538+822040359+819073897+819400240+821138524+821850397+821950385+823600263
1528+827491802+832580209+837657332+842245425+845904555+848428768+850696585
1518+853151673+854948395+855876760+857076916+859495088+863456947+869409153
1508+876861702+881602243+879514077+874686476+872390711+873455606+876335607
1498+878898455+879760609+879529546+880227968+883009774+886824715+888861019
1488+887345804+883826119+881110224+880678288+882108162+883973336+885853979
1478+888958766+894109796+900020676+903738618+902760708+898121874+893961383
1468+893103937+895319891+898164619+899466781+900282752+903366540+909561616
1458+916030651+917278185+912468594+906542993+902491757+900871471+901378137
1448+902520154+902507749+901378959+900540569+900648553+901440462+902704885
1438+903996435+903991727+902139482+900119842+899486509+900149659+901443376
1428+903220668+905395073+907062811+907322122+906807759+907072152+908297492
1418+908670243+906984046+904274877+901945783+900466138+899660330+899328456
1408+899297817+898974986+897751365+896325825+896325227+898041166+899881380
1398+900357183+899621247+898299879+896308712+893795185+891691325+890428247
1388+888925362+885799352+882003541+880453875+882574848+887004066+891517429
1378+895055722+897672974+899713388+901624147+903682272+905556563+906889289
1368+908433649+911687148+916754332+921264033+922501778+920700573+918519741
1358+917625379+917849194+918610015+919619461+920659696+921591348+922731721
1348+924735817+927575837+930015307+930976553+931099856+931818007+933380526
1338+934905382+935927906+936667504+937187920+937493863+938097527+939410450
1328+940888974+941799478+942436696+943507496+944788509+945542231+945842867
1318+946344302+947182095+948093272+949146211+950450166+951466412+951525523
1308+950887184+950422964+950422292+950534311+950654103+950908706+951019156
1298+950731149+950408317+950247275+949650411+948188926+946442945+945104689
1288+943827263+941501232+937570684+932950234+929427709+927983711+927821249
1278+927169084+924923761+921414090+917747113+914668482+912248366+910489607
1268+909605408+909418883+908940241+906963645+903109844+898300851+894094626
1258+891281359+889287800+887149415+884604726+881989566+879736696+878267290
1248+877687762+877525300+877371133+877517005+878396796+879771894+880899487
1238+881428796+881870896+882863752+884169725+885034644+885457090+886195941
1228+887469033+888561728+888823057+888532733+888810652+890680160+893847346
1218+896717781+898117988+898552540+899501904+901887419+905221625+908007168
1208+909188866+909293487+909808747+911693425+914710106+917886783+920614708
1198+923296153+926594041+930318933+933818292+936976211+939773561+941514385
1188+941694184+941138495+941349008+943038942+945720984+948391592+950393596
1178+951862778+953482913+955585129+957483259+958259474+958361106+959412625
1168+962093173+965264992+967560085+968758671+969308830+969744428+970646413
1158+972138089+973726016+975165755+976701297+978262845+979589069+981116540
1148+983339295+985386061+985814262+984953452+984949865+987233151+990966189
1138+994367353+996891940+999357416+1002250195+1004868119+1006294556+1006599527
1128+1006702355+1007501437+1009250780+1011387895+1012952656+1013497285
1120+1013662885+1014664560+1017073391+1020067802+1021944858+1021592060
1111+1019690941+1018468292+1019874327+1023631204+1027213438+1028323993
1103+1027310511+1026492373+1027606291+1030582393+1034021221+1036139429
1094+1036118878+1035130506+1035503630+1038297393+1041864531+1043655723
1085+1043323401+1042700680+1042962457+1043543629+1043814075+1044691997
1077+1047745071+1052476495+1055727378+1055199564+1052413573+1050273619
1068+1049817769+1051023529+1053827605+1057163306+1059442332+1060519931
1060+1061439702+1062749635+1064672949+1067431514+1070311440+1072099268
1051+1072785285+1073314221+1073741823+1072652715+1068995005+1064229130
1043+1061599548+1062859264+1066385226+1069261864+1070260100+1070110492
1034+1069922622+1070183876+1070998951+1072236547+1073177466+1072667437
1025+1070521953+1068219387+1067429347+1068224543+1069097758+1068386557
1017+1065700181+1062459162+1060597276+1060383550+1060269064+1059106721
1008+1057386598+1055930717+1054937562+1054566978+1054762247+1054615179
1000+1053475703+1052150600+1051749527+1051938667+1051483564+1049817470
991+1046814315+1041983277+1035915614+1031253165+1029852137+1030242822
983+1029881729+1028559391+1027495915+1026681737+1025026254+1022146403
974+1018828488+1016113938+1014427966+1013400510+1012341593+1010729005
965+1007794676+1002409593+994807808+987042142+980929044+976707051+973480455
955+970376266+967460769+965554419+965328960+966731110+968520209+968392646
945+965070695+960229419+956858744+956148889+957063727+958181681+958988460
935+959608491+959969360+959563728+958123093+956338702+955323800+955521385
925+956620208+957895018+958413193+957642582+955907288+954050335+952896063
915+952715815+952840015+952401802+951768992+951870400+951904626+949895224
905+945800795+942018734+940313781+940059625+940113505+940507330+941362534
895+941814125+941136104+939993340+939618796+940178445+940573241+939866076
885+938346003+936709427+934884383+932597062+930592592+929989077+930782704
875+931973370+932673436+932563434+931951025+931788862+932689502+933693942
865+933013380+930230154+926918666+924776096+924159802+924733126+926324043
855+928569366+930474071+931032600+930156471+928622947+927535857+927880883
845+929892302+932518746+934048085+933539775+931363353+928780776+927487656
835+928621527+931348481+933207976+932676051+930682118+929272421+929683657
825+931600170+933680416+935143246+936501754+938090951+939141125+939392366
815+940110516+942305770+945383580+948164340+949935952+950199374+948501967
805+945314081+942280811+940572569+939760110+939087619+938717782+939087320
795+939659897+939260094+938006133+937695632+939734926+943464526+946996317
785+949276688+950424608+950589462+950137348+950426477+952200480+953397796
776+950854303+944752938+939077754+937077694+938462282+940973493+942792259
766+943234284+942615524+942129708+942605510+943395775+943765462+944013115
756+944046071+943120023+941856198+941774593+942288059+941328458+939367182
746+939332582+942469054+946902831+950002461+950922232+951047329+952040933
736+953333380+952578761+949265105+945953019+945296221+947833811+952179182
726+955607548+955601719+952347249+948302066+945061271+942443497+939612070
716+936429714+934292675+934582476+936572448+938574152+940497839+943001203
706+945072406+945144819+942800405+938321193+932821325+928748717+928223144
696+930190473+930952415+928532674+924320918+919765781+914560423+909061676
686+905286939+904224958+904610039+904709878+904032604+903340385+903586021
676+904504596+904230637+900924380+894177052+885296945+878501940+878133748
666+881342708+883115665+882274884+879592319+875979894+872345948+869809030
656+869540303+871919018+874942723+875217279+872330180+869588728+869242356
646+869971716+869399662+866695276+863027626+860440640+859230695+857238854
636+853274305+849505322+848275274+849221649+850631720+851282763+851060443
626+850833713+850953729+849659115+845217866+839824861+837709568+839381043
616+841677182+843161609+843882300+841535943+834841449+827765985+825072733
606+826409046+827404742+825265087+822017118+821955840
##END=
