##TITLE=<SNM>
##JCAMP-DX=4.24
##DATA TYPE=INFRARED SPECTRUM
##DATE=2/5/2025
##SAMPLING PROCEDURE=Instrument type and / or accessory
##ORIGIN=Admin
##XUNITS=1/CM
##YUNITS=ABSORBANCE
##RESOLUTION=4
##FIRSTX=4497.3318
##LASTX=599.83466
##DELTAX=-1.4281778
##MAXY=1.7924861
##MINY=0.22410363
##XFACTOR=1
##YFACTOR=1.6693827e-09
##NPOINTS=2730
##FIRSTY=0.24283876
##XYDATA=(X++(Y..Y))
4497+145466195+145917081+146525791+146445706+145781207+145358206+145322591
4487+145030759+144353068+144157791+145138828+146780606+147901480+147868329
4477+146907679+145627597+144695234+144580515+145181308+145946886+146425586
4467+146361157+145633819+144651674+144246249+144638883+145133356+145205694
4457+145132187+145218021+145203418+144764965+143965521+142985805+142043061
4447+141723496+142600990+144187077+145008319+144211151+142525457+141293960
4437+141121935+141664235+142233081+142413862+142302365+142275301+142574247
4427+143159981+143847785+144437313+144728234+144545944+143906011+143106272
4417+142488422+142202357+142307185+142750083+143121295+142933739+142272918
4407+141710829+141554291+141632743+141768930+141955567+142044748+141758736
4397+141186766+140809529+140759873+140557955+139915111+139266537+139180926
4387+139718522+140514386+141110787+141248026+141067923+140824525+140351225
4377+139328672+138059775+137271132+137169668+137365499+137654608+138244082
4367+139203161+140204809+140838352+140810645+139925037+138333085+136795591
4357+136226112+136855807+138054660+138958031+139150345+138833074+138490015
4347+138344617+138159676+137699730+137225608+137201544+137545745+137526696
4337+136577695+135102006+134243408+134742050+136097504+137097465+137182227
4327+136862127+136720228+136646542+136326593+135916597+135809046+136008617
4317+136155729+136056149+135856230+135752080+135786990+135968396+136332128
4307+136770589+137055726+137141881+137188797+137297205+137488421+137783618
4297+138027855+137948841+137615128+137405176+137402203+137354065+137249129
4287+137360134+137726687+138014885+137897435+137386770+136819433+136564091
4277+136727494+137110122+137362527+137267686+137077711+137349441+138141592
4267+138761585+138670725+138188133+137891713+137821018+137749725+137791410
4257+138183679+138794344+139314738+139680210+139951860+140049387+139891457
4247+139567946+139261208+139269866+139938390+141138342+142089075+142132858
4237+141422836+140589982+140105684+140078843+140211745+139980326+139325414
4227+138987720+139656396+140960979+141819523+141743499+141293960+141232048
4217+141679258+142241596+142587226+142636962+142334981+141543812+140335086
4207+139298448+139239232+140322108+141668457+142120406+141412473+140366631
4197+139927483+140229713+140732970+141061979+141341135+141686631+141847855
4187+141618631+141268021+141233004+141535073+141820139+141909865+142005241
4177+142370650+143059615+143925264+144727341+145243576+145323510+144853245
4167+143912884+143030462+142866141+143470870+144263414+144820289+145164321
4157+145257180+144897786+144285854+144057309+144468438+144971739+144893350
4147+144217060+143411306+142785324+142351325+142123726+142202491+142533713
4137+142831311+142925553+143021242+143354348+143796406+144111134+144342776
4127+144603902+144762716+144654700+144356522+144023318+143650143+143216019
4117+142950234+143155330+143760006+144430324+145115317+145922294+146513366
4107+146390524+145749412+145348155+145603639+146250294+146684016+146500352
4097+145898497+145445040+145329473+145196241+144763234+144194745+143855274
4087+143967199+144443418+144967187+145298080+145394464+145220922+144719174
4077+144055283+143561131+143340057+143253607+143249144+143353893+143474610
4067+143573413+143881321+144551862+145239078+145388519+144919521+144319657
4057+144024746+143991550+143980490+143934539+143873448+143743698+143583027
4047+143520642+143517089+143423472+143265443+143203460+143314207+143558123
4037+143816196+143954060+144044063+144434260+145389608+146663825+147541239
4027+147487905+146827174+146477724+146872028+147510265+147733348+147503588
4017+147249675+147272258+147467232+147471285+147024709+146253535+145577156
4007+145336685+145558348+146076618+146793067+147677702+148529703+148978653
3997+148839574+148324580+147849825+147721610+147947977+148245369+148329623
3987+148221956+148074737+147806988+147266822+146700280+146694237+147586218
3977+149063040+150356145+150850315+150553824+149967304+149569001+149487729
3967+149621719+149970517+150644263+151438369+151749517+151282679+150538167
3957+150216165+150478880+151072879+151916740+153220689+154870903+156078147
3947+156349716+156425624+157129379+157825940+157267824+155528831+153805709
3937+153050146+153772611+156054474+158857732+160203010+159259605+157589558
3927+157179026+158128519+158940370+158812744+158779360+160028361+162017821
3917+162826923+161352270+158634632+156495997+155700142+155998561+157440527
3907+160820949+166430464+172716062+177072023+178348249+176999882+173326361
3897+168209142+164177289+163502936+165827538+168094601+168073946+167705046
3887+169663194+172863183+174211299+173944140+174293438+174218994+171646638
3878+168565670+168328824+171182460+175309198+179398660+182018878+181584210
3868+179589555+179145943+180159097+179597910+176335687+172888944+171992169
3858+174879957+182083789+192345666+198660132+194227906+184344872+176265117
3848+172333380+172460703+175539064+180031846+184923608+189818852+193566460
3838+194139340+191479294+188120348+185714501+183816908+181889645+180573234
3828+180422222+181328101+184049274+189716040+196168772+198257616+195823401
3818+193401166+191439126+187282290+181797170+178513507+179328554+183790398
3808+189135430+192265295+194195272+198020823+202749505+204323685+202871972
3798+201565094+200609871+198745163+196789622+196579375+198654098+202545596
3788+207810471+213804364+219411646+224438301+230450759+238686561+248072122
3778+256915563+265681239+275978410+288479412+302588495+316217549+326594198
3768+332944761+336267824+337196430+337064108+338306986+341823460+345929882
3758+349152651+353036669+360656923+373600805+389787236+403293073+411237810
3748+418211562+428210207+438796514+443820865+444474617+448565971+460643981
3738+479994161+500677622+514496909+519372194+521207017+525918240+534974676
3728+546837208+558617549+567380243+572134239+573604626+572470719+569727356
3718+566812861+564770308+564420510+565649141+565643893+561328813+554381983
3708+548860088+546785222+548049701+550822092+552215499+551314280+550274383
3698+550812808+552537948+554917481+559052074+566770409+577215004+584247061
3688+582247853+574377845+566933007+563125861+564368024+571098842+581747525
3678+591824148+594313688+587070973+578899976+576935080+578463523+576729029
3668+570466085+563982665+559970574+558262181+557903421+558688458+561038178
3658+563969704+564654233+562805663+562823622+568517649+578013109+582873362
3648+577407166+566932008+558295850+553156566+550517638+549428291+549404440
3638+550110463+551428284+553649717+557809875+565639822+577201543+586742991
3628+586344064+578848204+573139145+573354980+578999877+586626773+591571610
3618+592313516+591614241+591504235+591580715+592079758+594369244+597694021
3608+599320080+598860311+598754947+600321237+602356542+603461313+604190473
3598+606196357+609966763+613945255+616408873+617939672+620485339+624008312
3588+625556749+623248946+619416557+617120608+617233721+619255601+621954940
3578+623365914+621806123+617577199+613461886+613091630+618236948+627006855
3568+634153345+634862296+629652423+622771147+617584768+615124150+614401417
3558+613940043+613381051+613029861+612458516+611032974+609666773+610042314
3548+612272852+614661061+615180992+612840198+608410899+603926330+600792323
3538+598699891+596927621+595851021+596109915+597247820+598224662+598709210
3528+599262238+600150140+600457985+599024160+596052216+592835231+590185164
3518+588268577+587377676+587545702+587700338+586716463+585058662+583926862
3508+583460953+583157535+582973192+582618967+581171717+578794647+577159376
3498+577143916+577441835+576321604+573999162+572013379+571024719+570456873
3488+569719716+568759119+567727006+566755520+565771001+564578610+563427030
3478+563031208+563612694+564467605+564648841+563692886+561940147+560111643
3468+558306883+556155288+554387732+554624739+556756625+558338874+557619569
3458+555444731+553362831+551788687+550600187+550042624+550376320+551185779
3448+551621589+551399149+550889645+549993566+547802946+544157471+540605541
3438+538838235+539115160+540284843+540700266+539564538+537756636+536614231
3428+536035031+535018021+533767468+533652570+535025698+536502833+536645294
3418+535306586+533156419+530764068+528491863+526847880+526368332+526897652
3408+527438756+527191037+526359227+525503959+524561250+523079974+521240080
3398+519941753+519610915+519496231+518803526+518063584+518317194+519163500
3388+518869580+516707238+514039426+512546224+512417330+512724175+512696254
3378+512184893+511544174+511268178+511345835+511196376+510579150+510143376
3368+510630886+511875084+513003921+513454942+513332796+512930477+512514589
3358+512412332+512778411+513307446+513573017+513639284+513870615+514087163
3348+513358075+511050844+507953077+505767384+505516666+506902112+508793492
3338+509764764+509009933+507417115+506688634+507073994+507209421+506222546
3328+504583634+502953397+501511253+500289763+499464094+499423747+500421798
3318+501819276+502292434+501263713+499547714+498312192+497984459+498327295
3308+499094872+500178793+501129356+501208192+500396698+499527755+498912493
3298+498042265+497109482+497149329+498171837+498912779+498834193+498693053
3288+499003719+499570422+500332001+501259857+501771432+501421277+500749816
3278+500568580+500908702+501243647+501313485+501280994+501346440+501482618
3268+501344191+500433938+498654099+496630755+495216067+494723594+494804857
3258+494958923+494957959+494824745+494540108+493850688+492521155+490824830
3248+489485300+488966584+489120721+489593450+490059502+489946997+488745358
3238+486948738+485851893+485964827+486397424+486277563+485977359+486249500
3228+486813739+486547026+484841417+482294394+480090884+478983328+478870144
3218+479170777+479396037+479272892+478598682+477257938+475311681+473036726
3208+470951756+469547030+468800197+468330431+468055078+468080178+468000557
3198+467168961+465761164+464675459+464297490+464155742+463813549+463366635
3188+462962316+462500977+461920599+461208970+460142581+458574506+456860257
3178+455505946+454565594+453715146+452694387+451372174+449696736+447956922
3168+446787061+446568549+446978330+447240188+446695050+445170963+443020225
3158+440887839+439340795+438570040+438387553+438459177+438443859+438062427
3148+437276248+436256203+435070524+433753632+432710165+432376362+432372578
3138+431796198+430459739+428998779+427796962+426701473+425670967+424807130
3128+423921834+422873404+422080941+421983503+422266747+422260285+421840934
3118+421365385+420929360+420209377+418977461+417457623+416152763+415378223
3108+414910064+414261526+413405758+412853729+412868083+413100448+413174071
3098+413076919+412834377+412333942+411604140+410836991+410113116+409389276
3088+408672578+408068384+407698520+407504966+407180340+406552617+405904293
3078+405544819+405293280+404759068+403894124+402959627+402188087+401699755
3068+401503879+401369166+400915967+400054487+399122240+398417681+397847478
3058+397190656+396447358+395718163+394972615+394156122+393393008+392903569
3048+392704266+392514496+391993673+390994194+389620888+388155536+386902590
3038+386007261+385443521+385173487+385132784+385064338+384626064+383716883
3028+382517351+381257550+380144459+379389985+379071678+379041901+379107597
3018+379146515+378970063+378359371+377388385+376437143+375741439+375121643
3008+374292082+373308706+372519277+372086359+371720636+371016363+369998461
2998+369151940+368867839+368960457+368817245+368099833+367169371+366562893
2988+366216058+365611294+364580966+363502973+362732039+362223034+361752412
2978+361281611+360950701+360748648+360403563+359712215+358774041+357776597
2968+356784474+355847014+355088041+354581250+354236022+353853554+353340051
2958+352842900+352530984+352303296+351945857+351490588+351111048+350778246
2948+350330617+349753059+349157935+348590589+347950513+347061397+345891964
2938+344682935+343681421+342871712+342218353+341903010+341935823+341864163
2928+341321239+340542593+339951789+339577070+339175536+338628363+337980681
2918+337335820+336839991+336556782+336310241+335852473+335184761+334521048
2908+334003260+333642536+333429737+333284526+332991749+332407729+331687745
2898+331141429+330852436+330549340+329923331+329061315+328417454+328239395
2888+328199656+327823329+327126625+326522682+326222156+326036849+325695513
2878+325116385+324401757+323709409+323142634+322721784+322433862+322235666
2868+322016047+321645898+321088834+320473251+320067576+320062827+320284088
2858+320241136+319581779+318459512+317398550+316778075+316480299+316148639
2848+315724611+315452506+315417373+315422586+315269163+314919722+314474878
2838+314059098+313601401+312848712+311812136+310980969+310781595+310984932
2828+310946800+310379525+309617946+309072808+308699731+308201437+307518480
2818+306829845+306219618+305600964+304933109+304358087+304071772+304068523
2808+304059382+303725044+303058047+302373554+301944884+301693488+301339727
2798+300814262+300300402+299850702+299278483+298540397+297912014+297602437
2788+297415827+296955541+296072441+295012890+294130111+293524168+293050261
2778+292622752+292309177+292105857+291850105+291440037+290955383+290471264
2768+289928733+289293602+288682660+288209949+287818627+287347987+286692039
2758+285867120+285016226+284340409+283914418+283578687+283115706+282502765
2748+281865456+281216078+280434612+279566454+278919023+278699386+278702189
2738+278537001+278058970+277401577+276689842+275933975+275179002+274582949
2728+274265035+274123395+273923878+273596377+273282159+273011250+272554463
2718+271761197+270845534+270111662+269540335+268887922+268118220+267488302
2708+267184099+267073004+266906977+266636497+266402829+266290288+266198723
2698+265929832+265351328+264536656+263753886+263216318+262875625+262593719
2688+262390096+262310688+262225515+261999898+261685662+261368194+261029643
2678+260646854+260224986+259759648+259323392+259057035+258946904+258788198
2668+258456520+258048005+257707544+257463378+257251704+256992560+256615162
2658+256096624+255518816+255020273+254677473+254511643+254549883+254710304
2648+254701449+254271262+253525928+252817781+252375258+252173706+252069716
2638+251927451+251680536+251368085+251080681+250837783+250563964+250213541
2628+249844249+249521765+249222292+248900058+248605995+248452144+248454804
2618+248468568+248323536+248029009+247783950+247735374+247786182+247736035
2608+247564028+247426440+247382827+247288710+247002144+246563031+246136183
2598+245882680+245884162+246079091+246277502+246326810+246244868+246141574
2588+246059507+245939415+245716939+245432659+245230821+245199009+245222484
2578+245100392+244814827+244554790+244458763+244476151+244505250+244515908
2568+244499877+244451211+244462244+244703214+245210006+245761695+246054402
2558+245981386+245711316+245499088+245424447+245339810+245106016+244793833
2548+244549738+244362664+244120676+243813474+243518857+243255321+242984895
2538+242703507+242430849+242167991+241937929+241799591+241735020+241578080
2528+241174975+240625106+240252975+240282646+240586313+240814841+240758409
2518+240503032+240241478+240055279+239923832+239847282+239884450+240067365
2508+240283931+240321278+240112031+239848031+239732438+239727457+239671561
2498+239540186+239451568+239453870+239425485+239232395+238921086+238667941
2488+238569218+238565683+238534870+238376877+238048109+237582682+237075944
2478+236631743+236328593+236198985+236195790+236185114+236021319+235665184
2468+235233158+234908764+234782352+234761197+234662206+234418629+234131296
2458+233888416+233655782+233395514+233152687+232968683+232820616+232669782
2448+232507023+232359223+232261768+232206515+232159046+232123180+232095670
2438+231983058+231685567+231254898+230869378+230643742+230530220+230430354
2428+230337736+230309958+230372887+230521222+230723524+230890907+230947856
2418+230915847+230824890+230643153+230395917+230216787+230187277+230255008
2408+230369567+230569870+230860326+231115543+231231476+231295476+231461306
2398+231729698+231996447+232220136+232427062+232704790+233319017+234702463
2388+237223743+241022731+246100157+252503063+260348060+269661855+280290115
2378+292009436+304612446+317818579+331287068+344765020+357873785+369706647
2368+379207320+386098522+390903719+393989275+394968045+393142612+388368478
2358+381254693+372542057+362510706+351439245+340857437+333360506+330808270
2348+333597227+341045243+351300354+361367766+368654325+372359820+373119186
2338+372100569+370260675+368091764+365845909+363554244+360921744+357705081
2328+354108806+350394457+346358766+341652828+336425817+331213695+326255719
2318+321296028+316071338+310693761+305445470+300395019+295400731+290404747
2308+285529141+280912036+276592011+272549965+268773668+265239323+261863042
2298+258571399+255451942+252718380+250459671+248523160+246699798+244950790
2288+243402764+242150282+241116116+240145540+239201385+238378341+237730838
2278+237178041+236609696+236019052+235475735+235009754+234590172+234185817
2268+233784337+233397852+233078957+232856928+232671299+232459643+232248914
2258+232081120+231943283+231814532+231669732+231440276+231086497+230690158
2248+230391293+230254062+230238334+230265613+230267951+230203094+230086465
2238+229992080+229967676+229980815+229992544+230039620+230204986+230515509
2228+230875787+231160459+231398181+231751424+232271265+232833113+233344617
2218+233847355+234399295+234993080+235602504+236255577+237046470+238041432
2208+239170251+240268971+241243260+242146729+243081244+244065548+245073221
2198+246154357+247372098+248650215+249838429+250880682+251813357+252695118
2188+253590268+254506055+255331724+255913584+256209718+256377798+256671950
2178+257184150+257742142+258097528+258121932+257849595+257431030+256979545
2168+256445958+255735258+254881204+254018991+253259644+252591343+251893318
2158+251115172+250356235+249697021+249135369+248698470+248431792+248359848
2148+248518215+248926926+249764788+251656757+255259994+260474829+266611165
2138+273225942+280272299+287720885+295496366+303523563+311705737+320082322
2128+328867296+338179806+347880853+357620675+366997453+375830450+384165618
2118+391916730+398752376+404302656+408338668+411026725+413032038+415092336
2108+417613224+420733163+424490823+428860602+433631272+438223419+441908991
2098+444296022+445353057+445203883+444081116+442074410+438972109+434582407
2088+428789407+421306651+411894132+400614263+387744397+373841454+359669905
2078+345833801+332816046+321096332+310818584+301815312+294088230+287746325
2068+282658937+278539947+275032613+271739399+268601714+265925708+263822457
2058+262134718+260797349+259775055+258996302+258586645+258741210+259470548
2048+260799402+262904313+265995939+270367860+276326690+283942874+293234122
2038+304379295+317307789+331436135+345977691+360046303+372691516+383403610
2028+392295377+399674090+405795465+410760297+414480824+417016493+418522013
2018+418631055+416657305+412523140+406813975+400098903+392632714+384449505
2008+375590265+366276470+356749983+347083712+337378809+327954615+319152038
1998+311137391+304030319+297989725+292932722+288332095+283646526+278894012
1988+274485243+270706429+267637547+265266083+263441721+261920169+260547560
1978+259297756+258182005+257186614+256261954+255452888+255021255+255136402
1968+255400474+255089558+254045252+252903187+252268234+252112223+252112205
1958+252154086+252258272+252328307+252246936+252073501+252011375+252235511
1948+252822298+253871478+255462528+257144572+257818960+256903477+255223290
1938+253974378+253503470+253519305+253770344+254149009+254537226+254847749
1928+255219308+256070131+257603126+259270299+260404616+261283217+262461701
1918+263370205+262990933+261708013+260964554+261497766+262837314+264029579
1908+264515126+264479100+264457731+264711662+265110715+265495592+265959163
1898+266737149+267787185+268663840+269205336+269942154+271071473+271642175
1888+270812454+269223831+267991951+267374618+267086179+266951323+266887751
1878+266832730+266816306+266975298+267783436+270070012+273979434+277685411
1868+278319935+275397264+271469883+268870659+267971814+268010999+268237456
1858+268293494+268176544+268095316+268231690+268700116+269663337+271337490
1848+274026689+277828033+281481524+282287270+279472587+275798262+273815800
1838+273591182+273906365+274289118+275709340+279150585+283601199+286338028
1828+286359701+285391017+284460484+282862239+280565523+278849756+278455095
1818+278868179+279376595+280097792+281678935+284098850+286171895+286721871
1808+286015491+285400533+286052267+288354553+291658746+294414070+295394358
1798+295170543+295735890+298647136+303347397+306570522+305284943+301136889
1788+298142969+297982995+299675000+301763576+303754715+305436937+306394642
1778+307066031+309081020+313799526+320509099+325737145+326306241+323294879
1768+319541540+316721626+316140569+318466653+322092955+324255297+324742629
1758+325267380+326115292+327119163+329774978+335432444+342434616+346882874
1748+347232493+345628464+344592673+345253066+347523557+350238678+351966316
1738+353396214+357291729+364273299+369392447+367588186+361893909+356721598
1728+353067196+351153322+351198310+352699225+355607329+361353948+370864012
1718+381159898+385486438+381628413+374766132+369562293+367552374+368973667
1708+373391183+379031511+383652079+387724688+394012019+402578516+408727099
1698+409667808+407248928+402102717+395644254+391812829+392402205+396123910
1688+401971074+411078818+422772360+429468508+425727202+418190746+413805792
1678+414348574+418691860+423840571+427485082+430831353+435274469+438268157
1668+436924307+434223540+434797313+438892988+442804105+443827149+444014884
1658+447255434+456132276+471439981+488646242+495313505+491786533+491166559
1648+496452125+501081833+498883216+493632890+491508394+494147107+501246325
1638+512417473+525079538+532238775+530546663+526717951+527067821+532396589
1628+540385208+548923357+557777241+566485164+573280107+578494121+585433918
1618+595920537+606706290+612528497+614153699+615779329+618812364+622196017
1608+624685057+626131379+627370757+629194476+631634886+634536527+638429614
1598+644088936+651387671+659136712+666147310+672209451+677861918+683607431
1588+689619800+695642810+700872105+704554321+707052429+710043475+715512420
1578+724134795+733348868+738628793+740895106+745877541+756286075+769504275
1568+780765006+789551623+798842745+810456238+825657258+847142073+874182239
1558+892602742+893470364+888352823+884571135+882323744+880584431+878253063
1548+875520447+874684745+877499267+883270987+889788005+892196138+883793417
1538+868777276+857950855+853412158+850538866+845114123+838772772+835619413
1528+836649133+840122620+844531781+849564702+853587111+853536553+849761077
1518+845642551+842402144+839607188+837881728+838730569+843303400+851674915
1508+860767877+862057527+851699551+839624898+833213351+832436062+834849050
1498+836981115+835567141+831240243+828542618+830443245+835393974+838277692
1488+835335490+828678153+822903790+820420821+820778367+822234115+824053122
1478+827167848+832473338+839124319+843985144+843231919+837402001+831892781
1468+830332633+832040883+833782125+833332319+832566884+834963876+841562158
1458+848875817+849504432+841946911+833258982+827895651+825918330+825773512
1448+825458240+823643304+820790864+818428504+817622223+818761414+821813729
1438+825371478+825966245+822019602+817195982+814925526+814610897+813824682
1428+811740033+809670808+808865598+809538344+811578505+814656527+816864357
1418+815196524+809876681+804466649+801204319+799662095+798410149+797096790
1408+796728962+797739902+798774907+798587815+798277827+799580902+802174128
1398+804402023+805575491+805536144+803460779+799681804+796683403+796380128
1388+797756683+798013042+796694685+796715394+800119613+805652470+811022870
1378+815812000+820920400+826121989+829860689+831709188+833167721+835230875
1368+837375722+839404458+842223407+845825216+848082461+847091444+843782699
1358+840528653+838527981+837356370+836120206+834605402+833255054+832445631
1348+832249184+832696991+833980429+836340003+839712303+843451074+846528311
1338+848287334+848949511+849311984+850116266+851515030+853024120+854299917
1328+855773018+858007055+860925334+864289493+868302333+873015626+877765838
1318+881960629+885911914+890221317+894887694+899464881+903537276+906777683
1308+909058778+910789023+912788410+915547376+918663530+921089872+922094885
1298+921990485+921761261+922001196+922300044+921606089+919301429+916093799
1288+913673170+913148669+913773214+913581766+911369152+907787909+904550144
1278+902818828+902679723+903830696+905827226+907597032+908013133+907418223
1268+907409226+908878613+911387290+914302213+917240345+919466384+920330578
1258+920491106+921353015+923223650+925119565+926417927+927498420+928447305
1248+928488865+927258984+925639781+924501661+923380537+921396432+918862333
1238+916872516+915735396+914764017+913294629+911226190+908677667+905703903
1228+902553686+899866629+898262992+897633663+897140297+896234471+895393342
1218+895504455+896780680+898629821+900361780+901651288+902520695+903169447
1208+903731580+904266721+905123846+906823242+909304783+911968346+914626197
1198+917549475+920433764+922260626+922710647+923036630+924877987+928683384
1188+933445378+937525700+939831431+940767892+942031692+944829647+948476158
1178+951405435+952984149+953470303+953179668+952618963+952482785+952974152
1168+953954815+955611580+958026996+960482830+961882165+961849031+961402366
1158+962235354+964895918+968190168+970891435+973085483+975209121+977122102
1148+978789364+980385717+981471779+981628451+981791907+983304854+985979271
1138+988626125+990908791+993120334+994794666+995237117+995260111+996872459
1128+1000842454+1005425068+1008340420+1009646066+1011306116+1014213398
1120+1017168168+1018653408+1018260801+1016438509+1013902840+1011405160
1111+1010038174+1011115239+1014664205+1018788372+1021627959+1023035291
1103+1023287294+1022020781+1019881932+1018981105+1020766692+1024705195
1094+1028851499+1031519490+1032822279+1033946546+1035140651+1036072969
1085+1037630975+1040614237+1043518878+1044241396+1043286655+1043209533
1077+1044934208+1046707656+1046726008+1045658155+1046239212+1050275831
1068+1055885666+1058403055+1055392300+1049595230+1045535688+1045289755
1060+1048955475+1056386388+1065365809+1070469711+1068115563+1061598188
1051+1057131329+1057525222+1062048281+1068507671+1073538307+1073741823
1043+1069064163+1063112135+1058719041+1055514053+1052225588+1048922484
1034+1046718367+1047043565+1051073186+1058184257+1064870872+1067113407
1025+1064570953+1060512840+1057626837+1055762771+1053932625+1052298854
1017+1051829338+1053371420+1056623038+1059904076+1061867330+1063027801
1008+1064166277+1064662072+1063630351+1061698733+1060071103+1058376205
1000+1055705787+1052699531+1050329888+1048348782+1046256707+1044633290
991+1043974397+1043213889+1041278057+1039009673+1037698457+1036992862
983+1035753127+1034036807+1033054931+1033447039+1034110073+1033168757
974+1029983407+1025630159+1021800698+1019893572+1020357446+1021961154
965+1022277283+1019884503+1015654722+1011297761+1007404531+1003566929+999142415
955+993432321+986706360+980641862+976879811+975343442+974732750+974378989
945+974292013+974072287+973541573+973374761+973568066+973007647+971293040
935+969069929+966477418+963456952+961310891+961328529+962277343+961949289
925+960560452+959781734+959673049+959324501+959238739+960552454+962747787
915+964089066+963922540+963198308+962890177+962634603+961122870+957871467
905+954097919+951585529+951116228+952032051+952693300+951532400+948500794
895+945403349+944250304+945209972+946454064+946170283+944469459+942928091
885+942731645+944125124+946887875+949923623+951327313+950243536+948100617
875+946692285+945797170+944251590+942438224+942088676+943632757+944856211
865+943208230+939345777+936546180+936427426+937410302+937467930+936288821
855+934452248+932626243+931821318+932682371+934573215+936413430+937836901
845+938973593+939952113+940813736+941406576+941475985+940824091+939593425
835+938697025+939379197+941717348+944095275+944980820+944537298+944032792
825+944718677+946614520+947765065+946206416+942654166+939612205+938661606
815+940020237+943426456+947785060+950800028+951252619+950691771+951000902
805+951663151+951348450+950703125+950838731+950759396+948960027+946349663
795+945247177+946383797+948439025+949677546+949565648+948882119+948283924
785+947808268+946919366+945088006+943351762+943911253+947437511+951864239
776+954666907+955447053+955314803+955394639+956692072+959452466+962507566
766+964577433+965689632+966140367+965228257+962646243+960094507+959876351
756+962099320+964282156+964075927+961709497+959207604+957792417+956779977
746+955211688+953725663+953629903+954930550+956576818+957872181+958527860
736+958177598+956956358+955941633+956327600+958743516+963023783+967537845
726+969709970+968375760+965106004+962413735+961741417+963346482+965900217
716+967169802+966399368+964831293+963682819+962860185+961724350+960217830
706+959262804+960050733+962455366+964713968+965253821+963457094+958972882
696+952476287+946688429+944560434+945646854+945739400+941842814+936020108
686+932373526+931857451+931824817+929698466+925338006+920456972+916458057
676+913210152+910410269+908377677+906702418+903955448+901504327+904403041
666+910904135+913727226+910931056+905795735+900877855+895572508+889886907
656+885999319+884513650+883097392+880296366+878386455+880589858+886577519
646+892151864+893505140+890265804+885237454+882416148+882889091+883795845
636+882712496+879798215+875833648+872140792+871387639+874419817+877288467
626+875295865+869192163+863775061+862134149+863743070+868179153+875097347
616+879704526+876339153+867770121+862046387+862284466+864768435+864486726
606+861069581+858590611+859473942+862343235+864649396
##END=
