##TITLE=<SNM>
##JCAMP-DX=4.24
##DATA TYPE=INFRARED SPECTRUM
##DATE=3/5/2025
##SAMPLING PROCEDURE=Instrument type and / or accessory
##ORIGIN=Admin
##XUNITS=1/CM
##YUNITS=ABSORBANCE
##RESOLUTION=4
##FIRSTX=4497.3318
##LASTX=599.83466
##DELTAX=-1.4281778
##MAXY=1.7087507
##MINY=0.1835646
##XFACTOR=1
##YFACTOR=1.5913981e-09
##NPOINTS=2730
##FIRSTY=0.2009434
##XYDATA=(X++(Y..Y))
4497+126268463+125851831+125917592+126263650+126508948+126437326+125997491
4487+125303585+124768223+124918686+125889941+127239484+128328672+128808078
4477+128744096+128397588+127965684+127513452+127055967+126670432+126499687
4467+126586581+126781268+126922714+126996611+127008353+126900654+126724825
4457+126673718+126785800+126783909+126352464+125547572+124857580+124815893
4447+125536438+126605055+127307547+127039337+125847683+124563826+124056742
4437+124354831+124707716+124436584+123570838+122724335+122435600+122661224
4427+122986683+123214508+123459066+123660701+123305194+121903131+119746786
4417+117897154+117277352+117985013+119497893+121104878+122054540+121893393
4407+120928609+120003957+119725568+120029894+120330614+120049286+119259778
4397+118691072+118826198+119275790+119370596+119002776+118486506+118082628
4387+118010959+118383573+118843951+118781075+118076364+117175205+116404293
4377+115760005+115348008+115428694+115878987+116122431+115843490+115408459
4367+115363195+115790605+116318860+116550009+116385229+116043084+115808161
4357+115819847+116158424+116870205+117724303+118306351+118524223+118603888
4347+118616632+118490392+118301202+118161151+118084210+118141965+118398077
4337+118600948+118325144+117559485+116877996+116796551+117126383+117345434
4327+117441252+117701596+117864859+117474492+116925300+117041615+117746167
4317+118234842+118307981+118439249+118700951+118653890+118184494+117640302
4307+117299384+117325537+117940807+119073424+120144991+120632982+120574451
4297+120274498+119830674+119150711+118300555+117723872+118009779+119287606
4287+120885845+121819927+121687423+120883439+119934151+119049341+118458781
4277+118595274+119563298+120820703+121686870+121940614+121853130+121856585
4267+122202232+122880584+123762979+124574791+124868713+124482597+123853590
4257+123468354+123365495+123456612+123815846+124447025+125164311+125699083
4247+125768570+125292461+124596814+124111641+123934473+123956580+124231475
4237+124853853+125537159+125661517+124913536+123719822+122913760+123090937
4227+124212533+125589033+126360685+126231543+125671264+125366564+125650618
4217+126391341+127167253+127508124+127191055+126476625+125942957+125947143
4207+126380976+127023635+127787430+128488602+128854193+128895243+128896657
4197+129007334+129084930+128920965+128543098+128277051+128404854+128845401
4187+129312680+129557565+129377485+128797749+128278118+128360537+129171637
4177+130394481+131461600+131807780+131385146+130928729+131282784+132423800
4167+133464363+133681542+133233655+132724745+132437068+132266117+132084024
4157+131807012+131293936+130515954+129795025+129640686+130243231+131197135
4147+131833277+131833745+131510346+131485402+132020764+132707918+133019791
4137+132987486+132954199+132968684+132926380+132966034+133255284+133697685
4127+134159608+134662937+135107978+135102538+134402780+133462641+133203279
4117+134044474+135348453+136074195+135906925+135410665+135118915+134964837
4107+134726329+134576146+134921344+135909593+137153047+137854396+137527524
4097+136690252+136321908+136612741+136871494+136608771+136072351+135820321
4087+136257684+137374345+138611253+139223125+138980899+138382230+138143365
4077+138554042+139250111+139583641+139286853+138706266+138310589+138139564
4067+137910634+137522842+137202608+137217000+137641469+138337996+139013700
4057+139399151+139461643+139391744+139420949+139691874+140202910+140806214
4047+141342006+141781101+142104622+142098348+141527517+140566085+139776886
4037+139521795+139658493+139964542+140505699+141346239+142208764+142670191
4027+142576068+142233334+142202743+142756429+143551752+144020417+144008141
4017+143824859+143740390+143662813+143303037+142495860+141410136+140606760
4007+140762889+142053179+143861002+145359838+146258740+146701721+146682675
3997+146017740+144795149+143502265+142734069+142873380+143817331+144923477
3987+145529936+145576857+145405316+145095738+144478670+143727965+143461702
3977+144139081+145522342+146730879+146969528+146385700+145902831+146067236
3967+146559451+146950745+147292037+147757051+148258657+148581569+148569565
3957+148191811+147651523+147358678+147616513+148305840+148880211+148769112
3947+147983649+147248787+147301832+148109627+148929763+149205126+149084683
3937+148961346+149048989+149457737+150122213+150562431+150274801+149473037
3927+148934838+149146230+149857945+150456970+150697005+150857599+151198274
3917+151537778+151494640+151031930+150556130+150481474+150801745+151203592
3907+151688541+152704478+154364592+155907202+156478651+156063629+155087656
3897+153830793+152692437+152330338+153042756+154169034+154749528+154969469
3887+155640555+156565039+156839588+156630350+156800055+157123201+156823979
3878+156229439+156233934+156963037+157951989+158905237+159493625+159249686
3868+158465262+158014013+158115027+158187277+157811105+157229384+156948149
3858+157481545+159246427+161934126+163648108+162907731+161152418+159968901
3848+159721104+160216736+161088896+162023005+163117887+164799808+166927922
3838+168286145+167975836+166721568+165656855+165153714+165169295+165647024
3828+166276929+166765951+167614065+169510468+171732330+172579995+172255791
3818+172299912+172499356+171633582+170016363+169049781+169559945+171469963
3808+173734916+175082071+175722595+176685394+177807112+178193734+178107626
3798+178292913+178571535+178600075+178710266+179294795+180257052+181348769
3788+182567792+184049221+185800264+187839592+190444031+193783640+197377283
3778+200510257+203213650+206265124+210399513+215583089+220798183+225014990
3768+228513687+232333535+237080862+243047476+250485631+259062938+267568296
3758+275021938+281981090+289851448+299346722+309835020+319856751+328931058
3748+338058212+348276859+359374183+369244093+376938996+384298460+393140587
3738+404228360+417277538+430673767+442287135+451173010+457782751+462863197
3728+466799116+469852237+472707151+476072567+479737466+483400531+487892009
3718+493953382+501014859+508362561+516010872+523665437+530592641+536904545
3708+543094200+549406966+556314731+563991431+571568803+577856663+582357691
3698+585335081+587759195+590565494+593831880+597327299+600640840+602846335
3688+604017829+605590496+608008094+610419362+612314660+614144338+616578491
3678+619120587+619448648+616872357+615244445+616792767+618407457+616435678
3668+612853177+612109036+615640374+621767854+627508019+630867330+632162199
3658+633150467+635265958+638232037+640703119+642175671+642754639+642023457
3648+640474798+640515248+643593090+648843279+654407110+658777198+661783502
3638+664603509+668063234+671525056+674429560+677543582+680911320+681803031
3628+678570953+675168457+675746227+680542395+686974790+691441811+691801222
3618+689528422+688152128+689633818+693631162+698295791+701432286+702592694
3608+703821269+706745173+710069763+711927795+712689614+713733839+714880089
3598+714719111+712825648+710340708+709080222+710319658+713888076+718116362
3588+720846479+721799465+722751627+724156836+724245303+722525329+721499082
3578+723240930+726822231+730070490+731429106+729968390+726330157+723511949
3568+724312571+727563901+729032557+726870323+722597765+717988793+714504648
3558+713544695+715095976+717476644+719492956+721697365+724623217+727421125
3548+728974953+728902366+727576186+726062809+725941906+728209987+731794510
3538+733776440+732026651+727547121+723351420+721721485+722977626+725647441
3528+726880960+724658274+720891049+719857087+722895526+727034597+729553471
3518+731233595+733412534+734768004+733305190+729785313+727046508+726605221
3508+727591917+728374711+727919117+726705973+726844180+729627031+732983533
3498+733499578+730966096+728642434+729152336+732205083+735607578+736883121
3488+734546724+729731903+726044906+726430984+730444209+734659761+735932232
3478+734332111+732250778+731388730+731208875+730457992+729938276+731852264
3468+735539037+737066347+734635715+730862123+728599961+728189237+729203499
3458+731314795+732907426+732278344+730639495+730520241+731836683+732711840
3448+733004058+734081467+735888111+736781170+736010661+734381176+732664422
3438+730851486+729024767+728340103+730325928+734592193+738214545+738746246
3428+736847539+734866134+733814493+732323289+728636366+723572250+720825579
3418+723207071+729057727+733735315+734999321+734376532+733067056+730762195
3408+727853572+725893066+725596129+725934865+725639875+724562391+723522286
3398+723478989+724665915+726215098+727058268+727234153+727669522+728935176
3388+730951489+733331408+735167491+735700465+735604582+736124223+737060654
3378+737545537+738499946+741039346+743301733+742307097+738207953+734228887
3368+732701502+733141440+733754941+733528642+732995743+733189756+734267914
3358+735397835+735460233+734099071+732559251+732865102+735701664+739480724
3348+741969709+742471896+741713672+740241045+738287656+736405504+735032805
3338+733899215+732689891+731886872+731877134+731919232+731061230+729600739
3328+728625430+728268341+728054102+728588799+731057410+734893925+737267476
3318+736201603+733409762+731986276+732357822+732457300+731474126+731029769
3308+732409134+734945986+737528008+739578405+740333782+739692340+739499676
3298+741419357+744296968+745567716+744314197+741722886+739899912+740721584
3288+744061156+747106262+747247015+745160288+743128994+741551945+739433382
3278+737417443+737759476+741180248+745407486+747297953+745847799+742499088
3268+739190603+737154889+736765664+737679324+739059738+739853319+739479675
3258+738361441+737192943+735811854+733495982+730493274+728424450+728387370
3248+729794976+731668738+733461449+734170758+732651313+729585682+727560230
3238+728651198+732456851+736420336+738176417+737468456+736021523+735851106
3228+737416395+738994792+738233272+735045465+732093245+732244260+736325352
3218+742483507+747060718+747268289+743626386+739240792+737153241+737984576
3208+739340870+738525415+735839720+733628795+732994994+733254327+733725427
3198+734474737+735591698+736441685+736100701+734749876+733580629+732709143
3188+730910140+728198975+726456528+726688295+727967433+729428823+731179511
3178+732974768+733453359+731753834+729060124+726911972+724921503+721605602
3168+717077531+713409335+712095365+712957113+715105714+717303605+718051567
3158+716829584+715027884+714611018+716113608+718597949+720913147+722033180
3148+720838838+717217385+713072696+710631652+710006241+709708629+709043966
3138+708358253+707513135+706235795+705381239+705689787+706154295+705516523
3128+704162777+702849031+701333856+699912242+700007076+701821361+703253237
3118+702239875+699123830+696016250+694782506+695741260+697329845+697446928
3108+695895872+694659956+695223792+696656418+696958000+695682982+694375079
3098+694437777+695155176+694192901+690398185+685689060+683236106+684079501
3088+686266905+687226932+686285407+684409548+682497882+680949223+680128226
3078+680183134+680914990+682319900+684388798+686206229+686446236+684945818
3068+682509044+679566187+676438531+674108951+673509383+674405140+675528917
3058+675747051+674862231+673234844+671168417+669233680+668567893+669757889
3048+671598542+671906416+669778265+666478993+664023192+663365271+664018997
3038+665018202+665769235+666167823+666433749+666585064+665950364+663979670
3028+661481621+659936108+659695352+659793332+659335641+658371044+657476337
3018+656917594+656339750+655352530+654166354+653284456+652879350+652673502
3008+652111688+650778915+648975492+647556500+647033863+647152369+647219262
2998+646595648+645100624+643099443+641165604+639736424+638831380+637933975
2988+636643302+635456601+635228429+635949948+636734615+636901062+636513410
2978+636025756+635785299+635785599+635797285+635667543+635324462+634612456
2968+633334217+631376183+628808169+626134684+624347366+624262945+625600174
2958+626907702+626746312+624914199+622199814+619351642+616992847+615849181
2948+615984354+616388710+616253013+615921880+615770340+615175716+613554359
2938+611441976+609684509+608403236+607363543+606676520+606510185+606373253
2928+605352212+603210577+600763053+598842099+597340932+595859167+594744453
2918+594488940+594434481+593343439+591339636+589911542+589833937+590284512
2908+590133721+589354485+588943125+589656291+590932770+591231131+589503253
2898+586252860+583176404+581752318+581870074+581904233+580589962+578374281
2888+576352612+574919911+574125207+574131012+574658818+574917252+574478588
2878+573579049+572585050+571706560+570968000+570120484+568847789+567188527
2868+565572226+564364513+563474038+562502924+561262701+559957308+558803267
2858+557726157+556555262+555323391+554227891+553412437+552932274+552842196
2848+553044786+553141231+552734702+551835013+550811388+550045636+549605324
2838+549024932+547631072+545441271+543354095+542067728+541311189+540437232
2828+539297498+538296683+537810676+537722060+537578460+537167924+536640755
2818+535975418+534873251+533423209+532256247+531731175+531423638+530736615
2808+529632613+528416848+527240259+526197195+525414476+524679661+523524235
2798+522019097+520818351+520102825+519253212+517859277+516331930+515235643
2788+514627686+514243218+513761519+512792052+511213767+509588814+508616239
2778+508156151+507356240+505812750+504128357+503119451+502726519+502018895
2768+500435891+498596475+497333479+496430457+495114689+493415539+492149547
2758+491713055+491591029+491110154+490237657+489363699+488569706+487587356
2748+486374661+485221482+484312879+483515291+482456159+480776223+478640581
2738+476794086+475686825+474951448+474080374+473046112+472025259+471115045
2728+470409969+469894748+469359826+468672878+467824688+466655404+465049777
2718+463371639+462144674+461359670+460565266+459579432+458670080+458019499
2708+457420793+456592529+455514858+454411230+453557910+453027745+452485557
2698+451428186+449800498+448130375+446893298+446008104+445101599+444025950
2688+442955994+442135670+441632547+441264072+440749001+439956394+438948800
2678+437838056+436779673+435989576+435469486+434859955+433870338+432640041
2668+431448733+430409565+429628568+429259981+429202601+429039076+428431305
2658+427446857+426432184+425594894+424788728+423825554+422898524+422375588
2648+422188241+421805459+420915808+419804689+418888296+418169062+417392710
2638+416518115+415736595+415140285+414620870+414050179+413380497+412596729
2628+411705167+410780010+409937888+409247381+408669162+408090906+407448004
2618+406799520+406267895+405919083+405700949+405445774+404972089+404271507
2608+403523733+402837983+402130135+401352285+400640579+400118916+399739092
2598+399365711+398875509+398206726+397419025+396646419+395950556+395302185
2588+394710932+394306014+394232679+394408826+394493997+394280433+393947277
2578+393704012+393460596+393068900+392551394+391957894+391341472+390866589
2568+390607406+390362455+389945214+389478609+389202309+389145191+389113992
2558+388941440+388712407+388692968+388946346+389124329+388842149+388184115
2548+387593012+387299408+387127343+386882429+386646055+386581035+386684034
2538+386818233+386799543+386497474+386082481+385997010+386382939+386784224
2528+386734972+386340916+385981055+385793671+385716927+385679586+385541005
2518+385127023+384462247+383788782+383339968+383200488+383298543+383441506
2508+383448697+383311877+383169700+383121197+383121984+383034378+382719538
2498+382143941+381473210+381000724+380873305+380911733+380794576+380403778
2488+379920356+379614242+379599485+379758778+379885374+379913652+379931555
2478+379930206+379714470+379161982+378401698+377649391+377042183+376673933
2468+376608200+376811914+377158216+377466165+377549201+377340693+376945588
2458+376494115+376055263+375718549+375581729+375636337+375791248+375959455
2448+376035337+375910952+375628434+375400450+375354943+375332995+375061302
2438+374489076+373845499+373413839+373327956+373470844+373505976+373186229
2428+372649397+372208036+371944583+371740569+371546032+371418987+371413706
2418+371512698+371611390+371614086+371547118+371460299+371296587+371034894
2408+370850356+370944179+371302429+371747873+372122416+372325193+372302046
2398+372095898+371813118+371532998+371333217+371256997+371128904+370648178
2388+369775719+368698834+367362615+365376715+362324568+357927849+352153900
2378+345364902+338134881+330886095+323908291+317522527+311894518+306850533
2368+302133506+297803138+294271238+291884915+290610739+290434648+291952894
2358+296012524+302732006+311520593+322065991+334048434+345557268+353353672
2348+355135446+351297358+345037253+339995272+337111331+334961756+332285874
2338+328862779+325056264+321348779+318096513+315565579+314056734+313747436
2328+314370675+315239240+315828770+316375415+317646313+320043573+323209769
2318+326503572+329526918+332177818+334460056+336406255+338180725+340078758
2308+342227246+344356709+346066234+347281887+348281766+349311046+350331563
2298+351151024+351669316+351962059+352213040+352609231+353240410+354049835
2288+354872967+355528641+355942698+356231133+356557810+356865421+356894111
2278+356519868+355905206+355267997+354690153+354212611+353935711+353897920
2268+353962267+353965375+353917958+353927471+354000695+354079573+354165568
2258+354221862+354084480+353695854+353317566+353288726+353642145+354117140
2248+354468161+354627005+354649702+354647342+354726970+354902181+355069827
2238+355116719+355045107+354975929+355033196+355256461+355632614+356120306
2228+356595151+356894748+356993590+357017111+357067225+357174531+357359668
2218+357578139+357714922+357789193+358006091+358471985+359039978+359535011
2208+359956147+360370841+360761451+361075243+361356375+361711404+362116022
2198+362390187+362496595+362719073+363339953+364270129+365170904+365795979
2188+366094152+366168761+366232995+366447083+366786307+367189127+367732102
2178+368491562+369341212+370070109+370644171+371189879+371769184+372362909
2168+373054802+374009811+375270072+376767381+378476719+380372728+382404809
2158+384667234+387351282+390422494+393607754+396703686+399648228+402405873
2148+404995461+407471000+409789157+411899181+413939651+416136044+418562781
2138+421135851+423772220+426497130+429392232+432409472+435327796+438018286
2128+440652631+443512152+446628085+449640531+451989962+453310337+453646976
2118+453257227+452315065+450864799+448909574+446487444+443739200+440836757
2108+437781537+434430729+430789725+427125050+423744541+420739398+417919279
2098+415004326+411923563+408836845+405825672+402770528+399635643+396650314
2088+394071813+391942425+390164509+388630944+387213300+385801349+384437789
2078+383296146+382488370+381984760+381690032+381475719+381162639+380606143
2068+379832750+379041904+378454059+378147308+378008803+377834078+377514893
2058+377152935+376946038+376929708+376915138+376741987+376488384+376324597
2048+376258303+376171858+376056424+376046686+376232572+376579698+377026902
2038+377510736+377964569+378490464+379381501+380710528+382082366+383060409
2028+383617466+383940472+384064333+383901482+383427236+382697739+381779548
2018+380712289+379543379+378385255+377358259+376474826+375651281+374787174
2008+373813850+372771273+371827126+371102124+370526752+369958982+369363272
1998+368816815+368398188+368077093+367729967+367328832+367003616+366770613
1988+366415023+365867254+365421024+365307200+365317538+365143525+364823516
1978+364556879+364326348+363984166+363516737+363028820+362626337+362378352
1968+362245801+362080066+361808298+361513458+361280792+361136219+361109139
1958+361178767+361214985+361099064+360835049+360502792+360186079+359952065
1948+359847380+359898767+360055251+360126077+359940978+359605613+359381337
1938+359334257+359329013+359274105+359187061+359097283+359014210+358939901
1928+358890573+358949377+359200208+359569994+359908318+360229189+360601222
1918+360838645+360666243+360174805+359734942+359538907+359467819+359310960
1908+359018929+358747161+358653301+358693414+358675249+358507791+358347899
1898+358436366+358764839+359030278+359054361+359032637+359159832+359291746
1888+359187848+358837463+358418537+358178568+358288571+358610303+358821882
1878+358855179+358896604+358999228+359099381+359326129+359857081+360476911
1868+360666655+360308554+359864684+359707264+359715429+359574563+359256764
1858+359054810+359167248+359450402+359688536+359935435+360370541+360970821
1848+361589453+362170069+362593339+362595100+362219471+361929388+362032537
1838+362417679+362775030+362991478+363349129+364166905+365248060+365986059
1828+366179136+366190222+366225691+366169510+365993999+365817627+365722681
1818+365800810+366164491+366782299+367486289+368143649+368687148+369095250
1808+369478669+370059397+370973656+372168185+373462866+374629117+375517570
1798+376236092+377099376+378329935+379807731+381048628+381691418+382072927
1788+382779989+383949798+385384146+387043707+389026087+391094236+392775296
1778+394052673+395517510+397710831+400487915+402934353+404250271+404709161
1768+405044301+405721699+407050951+409091122+411339314+413135508+414547459
1758+416075743+417768713+419473444+421456834+424020092+426754628+428808395
1748+430026332+431008683+432206732+433744717+435682675+437899031+440035460
1738+442139753+444874663+448438099+451555043+452858676+453140594+453775856
1728+455217770+457418958+460113792+462881587+465649120+468988093+473427097
1718+478442485+482373685+484308460+485195788+486322937+488286177+491076370
1708+494423620+498032825+501711658+505628625+510229544+515448721+520226761
1698+523840386+526654025+528867834+530767627+533271519+537009642+541888547
1688+547651297+554372090+561729419+567895065+571555170+574179628+577533432
1678+582222257+587961561+593791654+599025475+604192441+609926239+615552132
1668+619958663+623672029+628153881+633850038+639778673+644774472+649009276
1658+653523189+659222979+666787991+675852972+683147789+686761451+689504601
1648+693410182+698164476+702406846+705712035+708709050+711975511+715882740
1638+720439426+724645914+726658856+726192101+724992441+724098707+723460262
1628+723006316+722877399+722791628+721923064+720150054+718712634+718355545
1618+717894708+715385872+710919226+706485315+702891354+699630886+696197828
1608+692624242+689310064+686591708+684601838+683353937+682672794+682179072
1598+681507966+680425987+678904295+677211063+675647722+674285436+673146826
1588+672214290+671178080+669762908+668285412+667491906+668029225+670133031
1578+673320913+676038894+676699138+676054850+676096349+677609576+680145080
1568+682960367+686039258+689873526+694668271+700506416+707937267+717183002
1558+725894489+732081110+737953489+745548464+754571871+763647863+771885928
1548+779329064+786480731+793473592+799711075+804635412+808239560+810344640
1538+811009828+811208934+811638984+812544404+814288948+817006405+820094359
1528+822868447+825462304+828572581+832151336+835421243+838452192+842074544
1518+845824614+848282138+849396103+850827830+853895484+858449323+863573815
1508+868295225+871368122+872167846+872122226+872646436+873903701+875480600
1498+877004989+878383381+879694355+881152375+882926583+884688581+885729211
1488+885961127+886127349+886723546+887709418+888984136+890395562+891525408
1478+892198760+893173545+895478780+898710933+900800806+900795113+900210677
1468+900440122+901558506+902984090+904011835+904528030+905303333+907105033
1458+909642410+911300360+911023573+909873203+909092057+909133256+909815598
1448+910417863+910395240+909997026+909677841+909447797+909134455+908745904
1438+908402823+908201919+908146711+908251808+908735043+909662710+910570451
1428+910997130+911149045+911466582+912100907+913028275+913903356+913891071
1418+912768942+911690109+911471751+911744193+911903748+911615950+910794128
1408+909556564+907849624+905455547+902946261+901654913+902147287+903611299
1398+904698746+904522037+902992630+900702227+898460889+896518885+894350358
1388+891308173+887774813+885503286+886014238+889071554+893093168+896630723
1378+899296868+901442997+903533919+906073393+909400830+912991869+915663482
1368+917009513+917979354+919599251+921878942+924085298+925411104+925506388
1358+924863373+924598271+925542194+927476407+929420358+930796652+931947247
1348+933305339+934778940+936227895+937742770+939233001+940449066+941359054
1338+942053456+942738495+943882423+945592060+947096973+947557510+947140345
1328+946852247+947495711+948888260+949959452+949863719+949093285+949073584
1318+950530330+952677808+954333061+955267396+955832281+955955880+955265448
1308+953868778+952463045+951836510+952353978+953401574+953611018+952453082
1298+951101508+950818129+951229601+951121209+950206051+949067966+947965687
1288+946621229+944658550+941725732+937828990+933736513+930340160+927752894
1278+925538373+923331269+920835616+917826091+914500827+911466357+909257604
1268+907992549+907305114+906611011+905672258+904573724+902955175+900117491
1258+896200374+892342285+889506173+887859309+887161686+887132847+887560275
1248+888390486+889547523+890569800+890796098+890199602+889751274+890523356
1238+892396594+894030124+894536730+894729695+895825906+897485879+898369275
1228+898252268+898223578+898989069+900127753+900948601+901506370+902622207
1218+904794479+907311331+909039920+909993805+911377141+914048155+917427503
1208+920004281+920912547+920868351+921263718+922710577+924976335+927777989
1198+930903247+933924833+936469550+938531857+940149506+941258153+942250840
1188+944152543+947613617+951877710+955267321+956859277+957397419+958382467
1178+960277278+961852454+961778220+960619760+960292859+961727207+964024502
1168+965708071+966194452+966279174+967356958+969803620+972418527+974030259
1158+974933581+975973236+977234396+978532486+980167364+982278362+984326511
1148+985985060+987757696+990091546+992758514+995561142+998310659+999934152
1138+999519908+998303992+998608495+1000868486+1003269753+1004263265+1004195473
1128+1004242066+1005137822+1007367699+1011242942+1016075891+1019898772
1120+1021208848+1020899775+1020931386+1021688637+1022261013+1022360416
1111+1022337045+1022301089+1022648739+1024270659+1027030064+1029088550
1103+1028927572+1027488280+1027249546+1029296646+1031974177+1032803264
1094+1031762710+1031781662+1035214270+1040590006+1044135501+1044490642
1085+1043928229+1044722934+1046235786+1046102524+1043954672+1042695085
1077+1044727204+1048112919+1048977588+1047677776+1048190674+1051515564
1068+1054771388+1055963183+1056084610+1056886805+1059046867+1061734960
1060+1062805328+1060956810+1057586825+1055114619+1054479320+1055221663
1051+1057159547+1060913438+1066236887+1070560008+1071125493+1068722952
1043+1066742445+1066581317+1067012715+1067533554+1069170455+1071928288
1034+1073741823+1073373573+1072320733+1072182677+1072207996+1071127890
1025+1069772046+1069334280+1068594259+1066194190+1063974275+1064479159
1017+1067294746+1069967257+1070352886+1067385235+1062085831+1057740613
1008+1056665376+1057812974+1058931583+1059148668+1058422130+1056768599
1000+1054809667+1053585586+1053609332+1054500219+1055061509+1054014513
991+1051583731+1049274676+1047611931+1045423478+1041841727+1037748051
983+1034211994+1030684027+1026299631+1022271125+1020867190+1022089997
974+1023227258+1022265282+1020276536+1019189089+1018307116+1014570379
965+1006486026+996524540+988652778+984604571+983172020+982327876+981347324
955+980691799+980330141+979066434+975909414+971362317+966786529+963348078
945+961682037+961669528+962283403+961983020+959915694+956789687+953957920
935+951949397+950756404+950952065+953042388+955963670+957500044+956394469
925+953589519+951545715+952157193+954785509+956907817+957261086+956955609
915+956916357+956530278+955312640+953925709+953039316+952270006+950612655
905+947774820+944836608+943041874+942195333+941273284+940337452+940269060
895+940866381+940997920+940523075+940355430+940538132+939948152+938153569
885+936099802+934812648+934406045+934584402+935302325+936444081+937364782
875+937364183+936367824+934758340+932984656+931650759+931355770+932120136
865+933535833+935264347+936533147+936067741+933764453+931328803+930284952
855+930703242+932096016+933837190+934847930+934384696+933028552+931901778
845+931323634+931040480+930906843+930713504+930197609+929717820+930244652
835+932123058+934398554+936047141+937115337+937881801+937768988+936067366
825+933164661+930332369+928735170+929079899+931688588+936333142+942061696
815+947347317+950498644+950708612+948990436+947126037+945757309+944520794
805+943614475+943579343+943883322+943380161+942177355+941872103+943676949
795+946876966+949341157+949498615+947468968+944668139+943008166+943847291
785+946524072+948261126+947177200+944730837+943573201+944716230+947854672
776+951909471+954202271+952176670+947340575+944172019+944832862+947481253
766+949331943+949485057+948719791+948036176+947703956+947316604+946639431
756+946012447+946066007+947063039+948088012+947638112+945531909+943351696
746+942721341+943732831+945302015+946434856+946946706+947665154+949467078
736+952104083+954722511+956920177+958222013+957715706+955618866+953807204
726+953472063+953691770+953069579+951731114+950885846+950579021+948812378
716+943938455+937828840+934743358+936640192+941186091+944675854+945621874
706+944607088+942347697+939601850+937619321+936873682+935973731+933338449
696+929118177+924447406+920119790+916646282+914979717+915561307+916756697
686+915864162+912049670+906793264+902117698+900155319+901767351+904709833
676+905540493+902902964+896348094+884003243+866377417+853379139+857434837
666+873025324+885715802+890500959+890290091+888991852+887475478+884323028
656+879031489+873845123+871377111+870844437+868863930+863968358+857937773
646+852948490+849978217+849113024+849475206+849540751+848741103+848137790
636+849109653+852093484+856489791+860527885+861422517+857580009+850748876
626+844800914+842051996+841416472+839919725+836122537+832621087+833225375
616+837851051+842508264+844176252+843461325+842214548+840802522+837490067
606+831131007+823320744+815175790+806428197+799435711
##END=
