##TITLE=<SNM>
##JCAMP-DX=4.24
##DATA TYPE=INFRARED SPECTRUM
##DATE=2/5/2025
##SAMPLING PROCEDURE=Instrument type and / or accessory
##ORIGIN=Admin
##XUNITS=1/CM
##YUNITS=ABSORBANCE
##RESOLUTION=4
##FIRSTX=4497.3318
##LASTX=599.83466
##DELTAX=-1.4281778
##MAXY=1.8579144
##MINY=0.40366036
##XFACTOR=1
##YFACTOR=1.7303177e-09
##NPOINTS=2730
##FIRSTY=0.43214783
##XYDATA=(X++(Y..Y))
4497+249750574+250226566+250813633+250555554+248909235+246709177+245326758
4487+245199458+245814117+246749687+247961816+249210200+249982955+249948146
4477+249104585+247871409+247160349+247588356+248484724+248491166+247222061
4467+245626225+244784283+244984318+245826570+246635339+246855009+246494071
4457+246177466+246498273+247336805+248039322+248333759+248745300+249744925
4447+250852592+251222642+250717663+249719606+248478576+247332327+246887510
4437+247316085+248020152+248364573+248199432+247595366+246764723+246301442
4427+246783307+247887754+248356374+247199567+244845754+242800484+242164003
4417+242741562+243573566+244112097+244661995+245668870+246895381+247586926
4407+247304287+246320043+245294756+244696890+244442618+244088621+243487999
4397+242995576+242896644+243068501+243304430+243561045+243850711+244194167
4387+244613717+244903160+244518488+243113937+241209350+239954816+239992932
4377+240760623+241151254+240644518+239639762+238957655+239078789+239745687
4367+240489299+241386701+242576715+243277044+242470566+240624866+239480874
4357+239861240+240764619+241027141+240845794+240926917+241130000+240861191
4347+240173315+239686937+239682993+239784440+239543430+239058120+238716989
4337+238528770+238197336+237709718+237320189+237114539+237016485+236999554
4327+237031556+237039306+237012747+237001759+237069654+237257960+237474478
4317+237573359+237590703+237692977+237930353+238237777+238621863+239048406
4307+239161824+238526479+237293837+236276162+236195590+237087326+238369865
4297+239253694+239335231+239005433+238907948+239041810+238983611+238744409
4287+238665611+238719762+238512769+237819140+236829471+235966396+235544503
4277+235636150+236198639+237107598+238066987+238755157+239099956+239248889
4267+239296271+239170814+238836470+238467729+238165145+237666935+236849140
4257+236352652+237017622+238699197+240234665+240749548+240590798+240621043
4247+240980189+241126659+240929586+240918236+241315792+241593092+241255853
4237+240460105+239569541+238614940+237572394+236880022+237115417+238132248
4227+239091741+239451594+239387625+239271883+239284594+239401714+239385713
4217+239055468+238713476+238819711+239264253+239591053+239800940+240231066
4207+240869373+241413449+241692989+241614380+241159126+240672610+240536716
4197+240502906+240032322+239181717+238461753+238064197+237838878+237704740
4187+237636673+237570310+237509769+237448556+237319397+237335983+237978045
4177+239191414+240097634+240063755+239596823+239594533+240114134+240446998
4167+240240590+239917096+239883838+239963962+239923882+239994241+240394655
4157+240844640+240994795+240948946+240977623+241024075+240795363+240117321
4147+239124311+238226013+237763490+237603052+237313265+236802258+236408905
4137+236368929+236636463+237206306+238120484+239062736+239389193+238863752
4127+238068658+237769398+238099867+238587812+238748405+238405569+237664248
4117+236937308+236801896+237410389+238193684+238475101+238175272+237661544
4107+237246334+237095800+237337326+238016109+238994393+239854902+239992191
4097+239146322+237834159+236875372+236512815+236327644+236000274+235828900
4087+236272425+237181177+237920811+238266437+238610237+239139622+239438177
4077+239158207+238515387+237874669+237335483+236824631+236218170+235460400
4067+234767942+234442674+234407400+234351320+234371644+234921818+236024560
4057+237050605+237430472+237255256+237006065+236885396+236740941+236592388
4047+236752946+237232745+237377285+236502584+234843003+233489278+233286849
4037+234037110+234874487+235214774+235180000+235285753+235857749+236671599
4027+237174288+237099348+236747538+236560472+236601826+236717879+237022823
4017+237711372+238366127+238228045+237466211+237264867+238173584+239272365
4007+239479961+238901368+238390137+238428959+238828306+239170039+239285317
3997+239334267+239518749+239812842+240016339+239978016+239686179+239230443
3987+238792291+238608842+238774068+239045048+239041069+238708998+238365903
3977+238309548+238591154+239076550+239607640+240165702+240813930+241384548
3967+241535685+241329071+241298620+241673681+241990595+241751239+241088939
3957+240529413+240383615+240553664+240953355+241885841+243450968+244819281
3947+245190226+245183044+245796515+246535442+246122403+244650559+243412026
3937+243227079+244180767+246069905+248120824+248908753+247776162+246079619
3927+245808416+247261297+248770740+248895869+248340477+248810457+250689760
3917+252381929+251905765+249213542+246197463+244522656+244510427+246173436
3907+250239414+257093689+264863709+269934737+270498225+267593204+262601026
3897+256914167+252922561+252650789+255445407+257666426+256787281+255454001
3887+257135921+260834813+263108278+263592296+263853837+262587901+258577452
3878+255089911+255673034+259994111+265687532+271106942+274467906+273850301
3868+271000327+269646259+270006955+268987111+265212160+261129595+259835757
3858+263082701+271593044+283613403+290636177+284912598+273030716+263417304
3848+258901083+259514744+263738146+269290539+274769577+279966269+283864851
3838+284156860+280654076+276158352+272512061+269417305+266638465+264962745
3828+264715173+265538323+268249096+274203523+281399067+284519141+282911920
3818+280737921+278412682+273712151+268178273+265553205+267285177+272014333
3808+276382431+278073669+279411961+283516675+288409112+289345715+286892607
3798+284676479+282741682+279708380+276470185+274889385+275657368+278694959
3788+283695439+289506032+294377490+298097411+302557501+308940951+315860089
3778+321714361+327412001+334913780+345241093+358092217+371303383+381742718
3768+388769470+394147957+398618621+402344226+406269936+410118483+411662615
3758+410650865+410887828+416195732+427081193+439834590+447894793+449550258
3748+450729490+456082761+463955399+468532884+469215938+471436751+479446799
3738+494207436+512582103+528255006+536998952+540128586+541811126+545603525
3728+553106303+563327759+573302367+580683099+584673603+585325758+584344908
3718+584221174+586052250+589808376+594724202+597869371+595768091+589346921
3708+582566742+578123188+576865278+577836415+578340963+576346951+573086486
3698+571322168+572859651+578364663+587838752+600383537+612256669+616460471
3688+610595761+601533454+595588000+593465500+593458886+594757960+598537992
3678+605620617+612377510+613163113+610468307+610009401+609693933+603551028
3668+592560089+583034398+577939377+576344781+576363210+577580403+580754198
3658+584616972+585740916+584417936+585723762+592589438+601980235+606049279
3648+600136206+588725562+577922601+570398225+566561906+565741132+566879820
3638+569194949+572243081+575482773+578942067+583856584+590058532+592578691
3628+586849290+577798144+572733816+573831511+579423570+585467061+587593350
3618+585955798+585121693+587302891+590504348+592620992+594020858+594991581
3608+594019549+590550231+586562345+584091307+583665333+585204780+588623942
3598+593422303+598628519+603113893+605922513+607082213+607823311+608869611
3588+608886972+606399400+602684611+600121669+599420186+599586566+599309334
3578+598204887+597030513+596703608+597630239+600462283+606493855+615676865
3568+623894527+625018402+618841187+611369515+607067745+606341184+607229372
3558+607494202+606393406+605005666+604405457+603896672+602679720+602426602
3548+605377971+610336649+613223947+611784880+606956412+600439272+593919997
3538+589480438+588464176+590172759+592558987+593943834+593979246+593888650
3528+595305464+597556453+597151078+592127777+585517560+581557576+580591263
3518+580171558+579130769+578320226+578429355+579008481+579238244+578676755
3508+577468897+576277299+575736787+575680604+575189111+573673915+571601949
3498+569987958+569473971+569898533+570304563+569529156+567540449+565562420
3488+564257421+562935302+561196785+560049072+560481316+561890759+562689900
3478+562046495+560456996+558810178+557388610+556039105+555086777+555327632
3468+556862359+558542661+558986341+557715893+555088947+551782599+548663472
3458+546592883+545842933+545836422+545817993+545590641+545430978+545536387
3448+545585199+544909344+543352846+541610678+540370646+539820524+540219079
3438+541626110+542758356+541800241+538856863+536028298+534777037+534578001
3428+534325882+533882063+533731564+533869559+533576482+532204001+529930105
3418+527607501+525945905+524999536+524540906+524738667+525968330+527745531
3408+528438472+526780354+523547861+520789878+519449743+518797106+518125489
3398+517828312+518321424+518946711+518818808+518094693+517531171+517222627
3388+516582494+515400851+514351450+514189859+514537500+514099125+512505665
3378+511138489+511340728+512631914+513630401+514052345+514729784+516025965
3368+517251907+517667065+517321766+516647220+515865888+515316317+515730201
3358+517262655+518629004+518317015+516462135+514409391+512903944+511779173
3348+510818130+510000904+509200798+508271894+507367241+506859110+507015982
3338+507845024+509016298+509760359+509166178+507046572+504446116+502910872
3328+502990342+503655104+503402916+501918826+500512071+500737218+502665470
3318+504703402+505153076+503767471+501570186+499539866+498065215+497411235
3308+497854605+499236111+501014793+502795887+504235506+504705848+503814802
3298+502083897+500569356+499907694+499987646+500404940+500928503+501536565
3288+502295610+503269123+504250869+504658242+504138399+503099436+502143905
3278+501381760+500814379+500763983+501298466+501880487+502160921+502450072
3268+502826476+502476596+500732085+498372037+497032866+497479199+499002249
3258+500292952+500575763+500005800+499156813+498226049+497029628+495689114
3248+494746122+494432135+494220870+493417251+491931404+490413039+489692576
3238+489907905+490341906+490309112+489836909+489210211+488359881+487142689
3228+485748919+484450431+483430001+482983151+483190489+483272922+482137162
3218+479953070+478221167+477884307+478295711+478343110+477860642+477435839
3208+477270355+476860880+475875690+474874722+474657842+475087813+475144720
3198+474181920+472671684+471530069+471009054+470483803+469298577+467699950
3188+466577488+466223611+465994468+465383547+464562084+463607585+462279610
3178+460806682+459831446+459466133+459262998+458908054+458280012+457158031
3168+455466156+453591985+452077203+451065316+450273374+449531898+449048879
3158+448932791+448799860+448207712+447188143+446004777+444716692+443363570
3148+442316409+441977207+442118372+442001458+441327464+440524430+439932627
3138+439387913+438840615+438564280+438394386+437591662+435841088+433739601
3128+432053444+431054026+430683340+430823609+431200427+431334737+430871043
3118+429983372+429278444+429085471+428980407+428383471+427419189+426631278
3108+426137787+425722250+425408264+425283599+425075779+424426483+423376291
3098+422328682+421746179+421816934+422183900+422185450+421522995+420485479
3088+419498670+418749994+418223640+417793773+417304795+416786605+416452191
3078+416281264+415886292+415059800+414101409+413334028+412716528+412196202
3068+411977910+412109464+412136953+411526479+410298952+408967016+407934288
3058+407228636+406744963+406390708+406071451+405840758+405823741+405795425
3048+405293908+404339651+403440234+402800273+402185115+401535199+401087316
3038+400893034+400678359+400226445+399624652+399040979+398389237+397444005
3028+396334873+395548340+395218749+394856536+394113268+393324771+392853706
3018+392416122+391591352+390588180+389933786+389610878+389010773+387815799
3008+386613143+386267465+386755685+387073599+386435464+385091471+383760706
2998+382820503+382246371+381843097+381372100+380766105+380262452+380143747
2988+380360764+380514571+380250981+379634513+378976847+378337816+377535919
2978+376647250+376012043+375674322+375274907+374561264+373633428+372695740
2968+371866113+371191016+370647611+370144165+369564383+368798380+367861829
2958+367053491+366710775+366681633+366405401+365668230+364863715+364377699
2948+364154240+363964987+363698400+363278178+362650515+361982514+361607625
2938+361623747+361711208+361472179+360813892+359936900+359112165+358498556
2928+358033381+357532208+356951084+356410159+355924901+355334303+354574983
2918+353822965+353253105+352792821+352278800+351789098+351552755+351506424
2908+351269978+350672078+350010898+349671110+349690125+349774658+349631565
2898+349224915+348701800+348141929+347513853+346854980+346338341+346132209
2888+346245781+346472031+346496488+346151534+345545641+344883187+344235717
2878+343587317+343015906+342658068+342497234+342323827+341943081+341377251
2868+340873185+340672151+340703911+340641700+340361403+340092198+339951171
2858+339675076+339032601+338178964+337407174+336844651+336496424+336283230
2848+335937828+335182813+334190010+333575471+333720632+334280985+334560731
2838+334260351+333666412+333202339+333005783+332912121+332679361+332189556
2828+331491173+330695029+329906773+329289099+329015175+329007872+328921995
2818+328574285+328138907+327738285+327211622+326496980+325845445+325425843
2808+325044340+324472792+323823392+323398693+323273994+323208785+322990424
2798+322700585+322527316+322455665+322295003+321932688+321446775+320977122
2788+320537127+320013426+319357103+318699884+318232987+317980867+317720687
2778+317191922+316411486+315664877+315151992+314833080+314627361+314500285
2768+314352782+314062599+313611478+313034142+312343682+311576818+310797966
2758+310066376+309471782+309069714+308717354+308169367+307412389+306716176
2748+306292372+306065227+305822960+305449414+304943901+304319201+303590401
2738+302843344+302217610+301796630+301540618+301336071+301109339+300866968
2728+300621325+300351603+300070824+299814089+299521908+299089388+298570682
2718+298158280+297914083+297658829+297171746+296430235+295644941+295078009
2708+294803051+294637015+294340907+293882931+293458231+293222922+293075522
2698+292778346+292242761+291607278+291081820+290784093+290690707+290694634
2688+290703452+290679201+290601660+290433041+290124119+289667245+289146851
2678+288660060+288181467+287642747+287131120+286819148+286702166+286584942
2668+286332047+286028826+285888849+286003696+286185164+286137851+285770385
2658+285227170+284694805+284293237+284038964+283837069+283620913+283456513
2648+283367433+283203998+282861506+282446590+282080760+281722509+281269924
2638+280698961+280100458+279672503+279594738+279844997+280216356+280501320
2628+280567890+280339987+279846461+279251317+278734091+278336243+277965281
2618+277554687+277191269+277031709+277081262+277142509+277059526+276916483
2608+276861678+276847606+276744075+276606355+276587736+276655925+276641233
2598+276515311+276399844+276319237+276144676+275823559+275508953+275359986
2588+275332290+275281980+275163636+275016874+274885096+274816271+274814514
2578+274805781+274772471+274806815+274929774+275038403+275092761+275148893
2568+275194691+275134597+274927501+274648375+274453886+274486748+274747841
2558+275086647+275337268+275408522+275277915+275013653+274779291+274692433
2548+274665840+274477999+274037539+273504124+273097526+272861821+272687156
2538+272484813+272248333+272013162+271852810+271832314+271883227+271831608
2528+271619568+271365744+271164623+270999053+270864261+270774112+270642558
2518+270348500+269937596+269636493+269623971+269811674+269896673+269688164
2508+269322472+269066288+269018992+269119853+269297205+269487715+269635339
2498+269749359+269857351+269895278+269751478+269396861+268904644+268406641
2488+268056433+267930890+267951334+267978599+267936470+267792929+267566352
2478+267411167+267493669+267710273+267743463+267465181+267087794+266863904
2468+266812974+266802106+266748317+266630748+266386741+265955307+265414331
2458+264945848+264669788+264590887+264648999+264737494+264733257+264575851
2448+264311330+264062983+263940661+263928157+263891918+263753458+263599048
2438+263563826+263643485+263675245+263527432+263267063+263059415+262934285
2428+262784319+262583216+262455486+262491122+262593757+262583061+262415837
2418+262232561+262188813+262327205+262598115+262885129+263023228+262920885
2408+262675449+262497942+262516561+262674226+262822263+262909346+263041055
2398+263355833+263918908+264790112+266192011+268622763+272793288+279408499
2388+289024081+302086021+318924411+339573457+363705909+390869097+420647657
2378+452365079+484661868+515659274+543882644+569132944+592142107+613132249
2368+631026480+644447258+653084900+657257906+656638613+650831087+640625613
2358+627085304+610166618+589013678+563430860+536524062+514773498+503599713
2348+504851043+517236922+535967361+553348432+564079398+568744379+570355889
2338+570784309+570584033+570206423+570307043+570937152+571295196+570524095
2328+568276896+564451256+558880967+551626037+543261182+534276656+524511522
2318+513915590+503363026+493884872+485440134+476929258+467230573+455980866
2308+443555373+430658675+417968214+405948130+394801352+384495603+374843903
2298+365664337+356916361+348633008+340747453+333125659+325769247+318846733
2288+312542408+306960407+302107758+297899478+294224475+291017163+288238942
2278+285819214+283645388+281622181+279762910+278174014+276895230+275822905
2268+274827673+273853471+272901039+272017244+271259560+270592713+269902649
2258+269162413+268478411+267934111+267465921+266927322+266254188+265556098
2248+265018601+264701325+264468461+264133221+263629396+263039160+262501404
2238+262099250+261801195+261510702+261194855+260937311+260830938+260853104
2228+260883366+260808048+260594165+260327991+260177749+260229730+260372652
2218+260427130+260348918+260223013+260127939+260088083+260088049+260061645
2208+259929006+259690424+259440096+259278160+259237047+259274026+259305890
2198+259265707+259158611+259074801+259120840+259308715+259541044+259717431
2188+259780228+259676112+259428212+259213089+259172889+259207905+259139820
2178+258970908+258823629+258760349+258761813+258754734+258663363+258538061
2168+258526539+258649136+258777590+258840853+258847845+258773233+258638113
2158+258570855+258595640+258543418+258331120+258113448+258037595+258054422
2148+258045380+257979000+257919889+257973816+258186045+258470528+258725248
2138+258991335+259393610+259965382+260630765+261319882+262024086+262753058
2128+263511345+264362708+265449277+266849729+268466252+270146105+271831832
2118+273497717+275052544+276392593+277459923+278202726+278557739+278494425
2108+278034916+277241355+276214208+275088214+273980064+272905380+271782486
2098+270568824+269356678+268280805+267379338+266604620+265926802+265351912
2088+264855976+264395640+264004888+263782290+263721163+263654456+263457849
2078+263222557+263132099+263237507+263439333+263631446+263797877+264025350
2068+264428279+264958422+265328488+265306666+265027764+264791404+264682723
2058+264634893+264684187+264886255+265144419+265349467+265529470+265708200
2048+265807442+265824752+265934312+266271722+266731334+267084849+267226341
2038+267229407+267249868+267428718+267787331+268176809+268425449+268529893
2028+268611464+268737851+268883390+269036818+269309089+269899618+270832931
2018+271722290+272036087+271689392+271130073+270816603+270871598+271173511
2008+271522478+271760337+271881436+271971309+272043751+272061026+272031557
1998+272022308+272255533+273089311+274503541+275732636+275949429+275230740
1988+274332373+273795117+273677066+273799268+273953919+274049441+274149355
1978+274322418+274538919+274728654+274850993+274994363+275444467+276368531
1968+277348400+277653137+277179505+276616190+276503444+276711574+276960335
1958+277277852+277728956+278143476+278345716+278413043+278604656+279132646
1948+280068491+281482653+283395421+285241603+285851750+284781130+283097435
1938+282060074+281866257+282046519+282265363+282443713+282587393+282722632
1928+282982830+283761664+285335971+287175419+288437324+289237481+290112510
1918+290447888+289240582+287188595+286063169+286524004+287731483+288504668
1908+288374475+287714242+287126004+286854801+286814670+286954784+287414775
1898+288340424+289509511+290347095+290786952+291635594+293209763+294334259
1888+293882380+292498635+291457708+291079960+291079754+291293154+291593534
1878+291818750+291986646+292371697+293616172+296603332+301366729+305810421
1868+306787379+303858641+299911092+297469576+296825000+297072021+297456452
1858+297721558+297913567+298180464+298610365+299305166+300528077+302617060
1848+305928024+310504579+314858708+315916927+312813439+308667440+306370671
1838+306077869+306476320+306948385+308445909+312058149+316762056+319629305
1828+319587314+318516591+317463401+315583685+312898351+310937133+310579192
1818+311222735+311980195+312898179+314648443+317166053+319172776+319554417
1808+318754276+318169156+318939017+321476985+325097044+328011142+328823890
1798+328284825+328672907+331627963+336482783+339731018+338135974+333477676
1788+330089998+329788653+331496753+333602995+335545405+337082061+337796083
1778+338292778+340458062+345715914+353076322+358532452+358638240+354838711
1768+350411725+347166280+346387394+348662013+352221238+354174017+354378117
1758+354649079+355269818+356111329+358783435+364666952+371975207+376552038
1748+376646389+374422028+372604144+372568285+374353995+376711770+378072779
1738+379227037+383208344+390706851+396360295+394567042+388509807+382986470
1728+379183737+377410463+377780288+379527830+382540481+388511116+398576423
1718+409560507+414142470+409834604+402085941+395905110+393194974+394534489
1708+399509426+405868763+410733848+414543471+420571666+429110893+435069229
1698+435302885+431858886+425667100+418398839+414079708+414411365+418094773
1688+424245980+434002296+446291068+452832837+448265652+440009823+435237918
1678+435625414+439926220+445009528+448604750+452109687+456671740+458938264
1668+455850242+451482127+451210545+454965086+458257621+458133818+457297370
1658+460267307+469690725+486019709+503837916+509540413+504342981+502683279
1648+507488495+511694639+508798764+502717348+499966564+502545904+510329427
1638+522531289+535682517+542328833+540029343+536499398+538180423+545701527
1628+556308276+567329459+578444511+589364765+598103888+604815930+613328391
1618+626131461+639713038+647546544+650455336+654266026+661323850+669785742
1608+676618349+680710060+683308070+685908973+688709808+691146880+693173549
1598+695408829+698263609+701412016+704255979+706708277+709121443+711666336
1588+714354115+717251747+720109557+722334710+723987557+726486635+731715379
1578+740074412+748499790+752257018+752644205+755515450+763130010+772663073
1568+780123998+785843064+792909293+803348800+818780469+841545263+869201770
1558+885425518+882810629+875678882+872106636+872024514+873194617+873496099
1548+873352867+875609367+881731880+890109170+897636233+898741094+887301170
1538+870343696+860065745+857916652+858000083+854542891+849023480+846821958
1528+849352245+853800553+857608625+860909840+863496965+863837234+862589487
1518+861196235+858376867+853156321+848148314+847160023+852561004+864799897
1508+879453885+882618414+867150093+849116970+840235786+839968889+844032835
1498+847589511+847030915+842728319+838832888+838921004+843053638+847213279
1488+846585443+841464725+836026404+832835833+831561906+831134829+831746405
1478+834387060+839304471+845519922+850483492+850230098+843993083+836892063
1468+833689780+834556747+835866500+834536492+833015992+836213108+845493673
1458+855859739+857485304+849090515+839769440+834330154+832464974+832422811
1448+831966660+829795107+826834988+824583449+823546174+824397296+828383667
1438+834585752+837808083+834327191+828552527+825755550+825709873+825421825
1428+824027677+823287888+824116826+825875771+828449599+832071104+834757575
1418+833257398+828212257+823238973+820065557+818361797+817286630+816372057
1408+815954143+816354213+816654662+815828962+814881663+815753798+818819808
1398+822569526+824823821+823802461+819611336+815180114+813497642+814530577
1388+815792379+815388519+814354758+814939465+817622077+821137899+824470255
1378+828052698+832697631+837717074+841228417+842710337+843490498+844334248
1368+845108209+846589370+849924482+854212610+856729256+856273381+854498798
1358+853264692+852812124+852534342+852174575+851952183+851951219+851831756
1348+851161413+849990276+849252485+850306157+853545299+857567357+860170809
1338+860399126+859261265+858439147+858951998+860845355+863377571+865529007
1328+866756775+867257706+867615337+868595154+870940735+874607298+878440585
1318+881367359+883680353+886379913+889643305+892645519+894712284+896368920
1308+898934825+902749166+906313076+908182114+909101717+910868997+913857088
1298+916935430+919195994+920598410+921182635+920824866+919844222+918847320
1288+917868949+916490440+914699529+912809134+910969101+909502614+908956212
1278+909195069+909287043+908736783+907997959+907479873+907046320+906842392
1268+907555174+909324039+911374476+913256466+915410244+918098024+920838920
1258+923262214+925551990+927582930+928696195+928752413+928635981+929342632
1248+930730786+931682907+931742983+931757520+932612431+933941888+934403343
1238+933165929+931007328+929586449+929694407+930631302+931165992+930605329
1228+928984587+926808832+924701144+923290943+923236999+924657533+926584029
1218+927873251+928575079+929443080+930552763+931523279+932572817+934136928
1208+935861907+937180340+938445862+940347005+942439054+943329239+942587108
1198+941563957+941857309+943763136+946564936+949412688+951384172+951719619
1188+950942283+950912727+952941255+956572062+960754024+964972983+968522425
1178+970017986+968968930+966842847+965717663+966692795+969855946+974765709
1168+980037719+983271763+983278446+981923016+981945889+983868044+986280039
1158+987946734+988507879+988056620+987151278+986975942+988663787+991969136
1148+994864839+995446791+994286057+993740206+995247272+998327474+1001441021
1138+1003342439+1004290152+1005475687+1006981513+1007626848+1007569803
1130+1009219343+1014455390+1022213870+1028814166+1031069150+1029628085
1121+1028027460+1028286572+1028773380+1027113093+1024385355+1024729276
1113+1030410174+1038438169+1043273389+1042771493+1039645338+1037543231
1104+1037811712+1039573068+1041568802+1043390992+1045398369+1047108192
1095+1046519764+1042734083+1038008268+1035518354+1036012396+1038295558
1087+1041940832+1047212360+1052407691+1054231396+1052494222+1050714197
1078+1050573238+1050212714+1049564555+1052501594+1060365483+1067996026
1070+1070216632+1068203467+1065834738+1064672557+1064550407+1065522921
1061+1067214625+1068550557+1069242464+1069332922+1068312733+1066333740
1053+1064955920+1066177350+1069875673+1073145679+1073741823+1072377575
1044+1070425657+1068204087+1066147656+1065163430+1065291574+1065993539
1035+1067546076+1069951181+1071217255+1069470298+1066118927+1064136421
1027+1064048718+1064203730+1064142483+1064999324+1066978455+1068589138
1018+1068351797+1066222407+1063080958+1059445466+1056235329+1056134537
1010+1060937789+1067507840+1069896066+1066467878+1060692180+1055794060
1001+1053179998+1053354852+1055399639+1057359824+1058712911+1060771133
993+1063336694+1063361840+1059378294+1054521442+1052581718+1053388404
984+1053898085+1052762911+1051390947+1051240550+1052307381+1053604594
975+1053562224+1050917160+1046387625+1041986372+1038381056+1034980770
967+1031995229+1030509727+1030428638+1029799632+1027130041+1023241982
958+1020364536+1019866154+1020834328+1020968947+1019202563+1016776307
950+1015010335+1013419838+1011251454+1009233329+1008476730+1008919308
941+1009343353+1008239871+1005088845+1001063893+997768051+995395533+993103621
931+990777607+988997856+987761132+986783451+986505255+987160717+987486312
921+986017413+983408381+982094563+983775381+987817832+991749983+993158530
911+991442438+987804191+983938799+981317985+980754635+981664800+982462804
901+982084022+980795490+979449774+978492624+977896066+977607812+977718663
891+977774812+976493789+973634807+970895977+969980369+970808550+971899976
881+971907416+970678201+969284535+968973890+969567347+969316640+966769061
871+962459369+958658531+957358630+958875479+962278590+966033268+968404615
861+968667379+967994418+967968376+968409989+968230244+967669649+967757559
851+968360041+968495625+967963071+967207574+966408123+965571607+964727787
841+963590409+961932877+960793363+961922474+965455313+969417708+971514373
831+970501487+966733580+962552789+960997084+962472321+963815349+962273836
821+959199765+957921704+959615130+962577798+964765679+966362722+969281160
811+974457958+980349742+984142038+984220095+981169380+976631715+972254231
801+969069654+966730825+964151141+961621543+960965737+963117724+967039127
791+971108585+974273321+975763163+975368467+974221787+973489095+973191884
781+973662020+976116454+980119428+982512890+980960630+977186522+974045624
771+971457466+968288046+965975810+966537438+968800690+969588498+967777745
761+965048904+963405358+964084382+967224109+971554056+975660579+979426074
751+983078032+985383722+984702356+981544028+978080015+975290961+972877794
741+971846513+974707011+981619123+987634849+987429750+982779512+980108130
731+981764283+984265428+984016650+981360424+978599341+976992722+976524722
721+977024483+978473126+980546367+982412442+982676997+980586808+977259275
711+974836946+974702189+975937122+976513148+976162544+975670362+975486207
701+976112734+977184111+976627582+972824470+966712705+960172073+955065134
691+953892068+956854667+960162565+960818027+959844204+959542033+959067764
681+954725415+946856704+941797095+943858624+949150820+949891367+944245260
671+936596322+930655209+928613384+930715147+933216153+933015533+930557034
661+927976592+926485923+925219230+923589807+923351915+925356399+927051478
651+925570523+921684807+919097751+919812462+921700652+920640022+913744307
641+901927944+891100285+887553461+891321712+896047045+896220177+892978624
631+890554435+890875896+893557819+897741435+902587471+907486004+912075959
621+915278449+915729570+912991911+907563855+901397457+898293211+900538619
611+905386790+908375156+908245428+905096469+898760797+892729639+892143761
601+895198334+892980622
##END=
