##TITLE=<SNM>
##JCAMP-DX=4.24
##DATA TYPE=INFRARED SPECTRUM
##DATE=2/5/2025
##SAMPLING PROCEDURE=Instrument type and / or accessory
##ORIGIN=Admin
##XUNITS=1/CM
##YUNITS=ABSORBANCE
##RESOLUTION=4
##FIRSTX=4497.3318
##LASTX=599.83466
##DELTAX=-1.4281778
##MAXY=1.8584197
##MINY=0.39628747
##XFACTOR=1
##YFACTOR=1.7307882e-09
##NPOINTS=2730
##FIRSTY=0.42485544
##XYDATA=(X++(Y..Y))
4497+245469345+246127986+246349112+246181262+245952732+245833026+245585848
4487+244930220+244103849+243761640+244252414+245232206+245977389+245995177
4477+245476766+245004313+244627339+243842500+242732034+241999782+241747955
4467+241545202+241622877+242565269+244005546+244969617+245243570+245490008
4457+246330377+247601789+248289289+247527197+245822471+244581261+244460798
4447+244905545+245067197+244526694+243402350+242251884+241611684+241489757
4437+241604246+241843107+242242775+242767557+243167225+243065358+242415602
4427+241720973+241479340+241663858+241982511+242180460+241973454+241208107
4417+240195823+239565473+239665188+240319042+241270233+242487198+243802948
4407+244689155+244928791+245076099+245366479+244873088+242947787+240608716
4397+239234043+238798731+238443246+237982175+237896115+238340742+238961381
4387+239433610+239661675+239582606+239234990+238921691+238825592+238661599
4377+238309868+238400405+239372845+240389743+240329563+239514212+239186897
4367+239606247+239841389+239233130+238088622+237031793+236397086+236226722
4357+236401477+236626890+236411309+235434978+234190360+233783201+234679291
4347+236107653+236980877+236842178+235867466+234715778+234269618+234790439
4337+235494349+235497948+234860520+234295120+234205237+234250126+233689271
4327+232156012+230191383+228963587+229357763+231186448+233153470+233890957
4317+233366416+232822470+233107099+233696435+233719801+233395138+233745526
4307+235084229+236475604+236831503+236061196+234925332+234144953+233885464
4297+233767807+233218540+232090390+231073819+231287506+233238807+236089177
4287+238084266+238060418+236490068+234850189+234178995+234336686+234524510
4277+234355110+234229980+234611431+235307989+235839537+235984452+235575399
4267+234551940+233626164+233889407+235311674+236558548+236682765+236122995
4257+235695208+235580582+235726305+236284078+237112447+237607078+237470067
4247+237035220+236597842+236167782+235854483+235762827+235744006+235684360
4237+235658308+235620254+235405517+235045968+234667531+234223850+233706645
4227+233419365+233625837+234028553+234063577+233771509+233842950+234583640
4217+235388108+235583027+235253387+234864498+234561651+234240174+233976673
4207+233992996+234328352+234870507+235608184+236495079+237130423+236982805
4197+236003547+234725059+233737794+233288484+233286951+233450342+233506424
4187+233442731+233468697+233636409+233667352+233334269+232875436+232803805
4177+233381741+234460903+235719521+236844572+237595248+237902864+237828978
4167+237347657+236395691+235263254+234589718+234668082+235043816+235180551
4157+235215799+235524999+235892193+235792151+235246259+234771912+234651982
4147+234732532+234741176+234534600+234265796+234370005+235097229+236098079
4137+236770186+236909194+236770875+236628784+236476638+236152543+235680469
4127+235305234+235010187+234294896+232929176+231663481+231450173+232129133
4117+232691056+232790805+233116002+234154458+235358182+235730438+234863723
4107+233332409+232230053+232272791+233259039+234391924+235052701+235200594
4097+235119355+234973976+234739334+234435041+234130386+233744338+233245212
4087+233019025+233494543+234384055+234820194+234319863+233243353+232332661
4077+232100946+232591169+233423480+233987865+233804397+232949116+232102512
4067+231919045+232299118+232529335+232301839+232239041+232995021+234156232
4057+234659662+234220131+233636874+233645914+234109861+234428342+234312580
4047+233999953+233891973+234073116+234200226+233939721+233330636+232594612
4037+231915515+231579866+231957254+233058146+234344245+235212596+235486945
4027+235309452+234842062+234278417+233939704+234037077+234415996+234755175
4017+234935733+235018039+234952814+234661280+234429376+234786083+235772177
4007+236663497+236777487+236342468+236233437+236990778+238261139+239148895
3997+239012470+237869770+236190700+234575478+233591399+233474896+233903957
3987+234419337+234993450+235811780+236726984+237400829+237822624+238247880
3977+238697604+238899858+238720316+238306717+237780782+237182407+236778193
3967+236996339+237895391+238986848+239661537+239639841+239056550+238201217
3957+237269569+236456819+236124924+236668370+238189508+240216917+241754137
3947+242072205+241524712+240960086+240626538+240363450+240320006+240662267
3937+241127264+241508543+242008581+242698423+243129017+242894581+242310980
3927+242186642+242962320+244138442+244819210+244914551+245127962+245626536
3917+245428295+243644861+240977132+239081001+238779911+239670422+241363697
3907+244351113+249016410+254092809+257209643+257502778+255963698+253296589
3897+249864666+247017671+246299108+247537976+248609079+248130238+247743552
3887+249355778+252031101+253491662+253748534+254103657+253751341+251545423
3878+249258422+249168712+251130706+253824642+256640918+258742799+258786673
3868+257489640+256920829+257166182+256575039+254674844+252795518+252290263
3858+254036521+258700768+265389410+269168724+265711834+258858889+253465300
3848+250967625+251317462+253864934+257416941+260946460+264195724+266776222
3838+267365006+265395023+262384500+260020530+258727457+258114670+257694355
3828+257138769+256717629+257709456+261035000+264950103+266080939+264693627
3818+263843064+263619217+262081050+259721626+258737461+260087511+263197801
3808+266414676+268256982+269620807+272321751+275458937+276376637+275408796
3798+274696672+274209256+273077972+272038500+272352401+274111521+276775652
3788+280105466+283901775+287805892+292126501+297830134+304867546+311647879
3778+317403203+323607804+331755113+341837555+353183728+364839430+375318802
3768+383589261+389410775+392785892+394860774+397493686+400633248+402100473
3758+401264494+400826927+403641154+410186552+418195421+423950711+426753402
3748+429847506+435514429+442673682+448564484+453307749+459689257+469408173
3738+482260038+496351530+508794377+517909425+524412085+530283775+537622483
3728+547396465+557833651+565522076+569778906+572927112+576062232+578271627
3718+579176861+579933047+581924520+584695735+585079166+580636613+573652511
3708+567995094+565813076+567823145+572850557+577486031+579082432+578398772
3698+577172302+576146639+576103282+578191594+582676919+587913747+590821197
3688+589655269+586200325+583490547+583230266+585275737+588494438+592481378
3678+596737209+597872556+592785877+585934603+583533319+585883359+588302963
3668+586566262+581623395+576775853+573829487+572464612+571805161+572180534
3658+574310929+577159456+578663806+578795220+579048959+579297600+577196615
3648+572261256+567356822+564572383+563731170+563557603+562761882+560968737
3638+559447100+559958846+562617725+566252262+570370652+574632888+576720133
3628+574465486+570339486+567779031+567674925+569684891+572535657+573804554
3618+572579014+571279777+572362434+575489358+578669936+580865625+582427933
3608+583674239+584382970+584686850+585445103+587149846+589255859+591300159
3598+593710672+596584098+598873596+599688878+599576404+599837719+601108476
3588+602692755+603088584+601793445+599749213+598018711+597677707+599539280
3578+602759771+605179031+605417685+603538618+600443136+597867391+597804507
3568+600294020+602387980+601637235+599139319+597527627+598357441+601434947
3558+605476505+608955074+610491347+609235949+605649659+601645431+599148686
3548+598665040+599413169+600284997+600469516+599666562+598006726+595509568
3538+592098773+588485897+586049212+585493867+586297164+587156871+586883366
3528+585302943+583199548+581285353+579746256+578649962+578065482+577926766
3518+578241460+579083052+579854667+579443134+577806303+576366284+576063747
3508+575940322+574555472+572006622+569711339+568949367+569918655+571595813
3498+572526979+572195893+571501763+571416289+571771102+571970566+571943980
3488+571724817+570983336+569500924+567743697+566492570+565709728+564621561
3478+563151615+562118548+561795176+561292039+559728870+557506974+555711900
3468+554565671+553373191+551859715+550578007+549824300+549053236+547906834
3458+547087351+547326901+548010699+547745527+546185286+544467835+543678209
3448+543600552+543086773+541381652+538896512+536604982+535041228+534205765
3438+534104174+534726776+535511787+535492846+534246092+532403563+531058834
3428+530815358+531476599+532407282+532999648+532806693+531619069+529879991
3418+528645945+528472343+528627314+527925332+526256680+524612720+523668537
3408+523141535+522538872+521915857+521708954+522081813+522568454+522420750
3398+521368570+519867010+518498760+517398883+516317224+515011961+513583754
3388+512602722+512738339+513936053+515082421+515008896+513768582+512373022
3378+511589491+511593417+512243880+513003923+513165816+512734826+512408252
3368+512413831+512346298+512408458+513553035+515794940+517485701+517091491
3358+515025013+512973101+512000197+511951365+512174935+512113739+511380350
3348+509960236+508384291+507327531+507075342+507373436+507572487+507035325
3338+505768770+504527422+503974798+504120573+504856028+506234060+507773845
3328+508458952+507842308+506272354+504114512+501879357+500759266+501584397
3318+503327263+503982753+503054377+501902018+501589563+501700866+501439035
3308+500802485+500207468+499662179+498883987+497977892+497517079+497855052
3298+498599013+499038819+499035548+499111759+499502663+499575154+498786183
3288+497898478+498266378+500051809+502139949+503697022+504777235+505350832
3278+505068510+504101357+503008024+501971203+501002053+500377591+500313089
3268+500753790+501533670+502059571+501258512+498837082+496069139+494439918
3258+494098811+494160214+493912296+493341282+493009852+493629940+495265738
3248+497070248+498166680+498336390+497624560+496105299+494254195+492740479
3238+491817992+491506088+491956432+492948862+493484956+492564570+490231198
3228+487491976+485353695+484140105+483552870+483128561+482634447+482228218
3218+482282630+482853437+483383918+483243515+482383567+481136124+479717594
3208+478329404+477264207+476481572+475565043+474350936+473085585+471976962
3198+471193190+470942724+470959047+470502505+469411065+468485823+468310810
3188+468302580+467452378+465633404+463708741+462520463+462153011+462150393
3178+462086201+461749571+461013565+459834964+458360472+456857983+455516525
3168+454294876+453025152+451768411+450879466+450494176+450206137+449617732
3158+448985522+448886995+449399293+449985012+450070004+449393163+447892981
3148+445734381+443467578+441697230+440520041+439587326+438668971+437834680
3138+437181600+436706082+436347894+435903473+435062432+433777452+432435133
3128+431481411+431025626+430868038+430699809+430245298+429462284+428651204
3118+428165665+427979838+427710671+427153467+426625052+426568781+426914503
3108+427097333+426718241+425940669+425148460+424390001+423427807+422349936
3098+421678053+421610968+421649470+421330162+420832535+420509198+420327056
3088+420101419+419827259+419422821+418562632+417164421+415757599+414985330
3078+414878263+414975653+414995249+414944797+414769784+414349366+413691775
3068+412878009+411990235+411135969+410311217+409337728+408174554+407109873
3058+406469777+406328478+406540375+406842567+406908274+406459170+405425828
3048+404062295+402877770+402301797+402325111+402501846+402381417+401896567
3038+401204503+400288525+399074625+397902291+397350769+397440927+397470406
3028+396820288+395562342+394181280+393010531+392027089+391073160+390198059
3018+389650118+389506271+389552212+389586098+389555242+389374443+388916936
3008+388225424+387521273+386951464+386414234+385725235+384936402+384269788
2998+383697672+382969380+382114047+381423154+380954937+380551463+380177296
2988+379820106+379379508+378906056+378462531+377703658+376248728+374465914
2978+373278083+373181003+373798302+374361808+374442531+374138066+373612303
2968+372770572+371604403+370469813+369654084+369002485+368280874+367591566
2958+367193051+367153000+367299567+367369166+367194979+366795810+366233543
2948+365474946+364508895+363485746+362614571+361989834+361591009+361386138
2938+361332243+361257479+360873324+360056630+359041988+358188204+357663922
2928+357445517+357436804+357483847+357383460+356958428+356181682+355272006
2918+354550912+354120059+353825306+353545464+353299922+353079416+352729424
2908+352061261+351116630+350279446+349912683+349880965+349744970+349386748
2898+349013923+348632696+348037507+347280872+346691950+346411454+346245050
2888+346000335+345715534+345492307+345286679+345010901+344714597+344451320
2878+344062447+343380061+342588645+342070665+341901713+341777943+341437972
2868+340901603+340280619+339602365+338916329+338409128+338239384+338258600
2858+338058309+337426237+336653589+336179586+336012391+335777800+335306242
2848+334863406+334730992+334804482+334734401+334363919+333905792+333671856
2838+333721653+333830786+333706121+333175847+332317449+331438423+330755313
2828+330135742+329375009+328590067+328059965+327825478+327708285+327609208
2818+327585721+327657455+327648088+327340902+326825540+326496693+326555857
2808+326677698+326335007+325362964+324122719+323168377+322757567+322649364
2798+322406921+321876785+321279253+320855633+320567905+320195838+319656886
2788+319119207+318757747+318517991+318248756+317974183+317830715+317761770
2778+317508135+316947934+316248674+315618702+315072035+314477052+313746660
2768+313011962+312595781+312637692+312798551+312596297+311927996+310989013
2758+309928293+308922776+308271625+308042854+307903622+307552011+307049529
2748+306590541+306215512+305861043+305482399+305049756+304566180+304089525
2738+303630434+303114968+302550704+302074187+301711729+301303124+300782561
2728+300287379+299882734+299453225+298961108+298540415+298231989+297877176
2718+297396734+296949558+296635450+296235282+295507335+294605373+293923744
2708+293618556+293524230+293444266+293306411+293098854+292830170+292552979
2698+292329030+292134387+291874898+291554316+291287353+291045083+290617021
2688+289971138+289384593+289097037+289083468+289187780+289230104+289022926
2678+288515967+287880709+287313224+286826910+286339098+285891061+285663943
2668+285755841+286013470+286148553+285989657+285546321+284887335+284114928
2658+283455529+283168559+283264330+283458973+283488504+283313456+282991410
2648+282579826+282187596+281893066+281616461+281269345+280959370+280821928
2638+280721817+280389613+279864762+279537275+279666125+280083202+280445677
2628+280520046+280174428+279425094+278565680+277963741+277697570+277593534
2618+277543272+277579276+277697674+277782701+277726102+277542824+277311952
2608+277045576+276716470+276378721+276118147+275929634+275779812+275716188
2598+275778951+275876496+275855420+275649895+275315727+274965615+274698962
2588+274567117+274568873+274653556+274735346+274736173+274645859+274541134
2578+274505628+274514014+274458569+274322574+274231589+274279440+274400817
2568+274463976+274403864+274238425+274026580+273836019+273723665+273723803
2558+273825945+273967709+274088328+274167380+274178899+274070471+273830285
2548+273517572+273204566+272932111+272714739+272541723+272360649+272098663
2538+271748964+271404740+271142599+270944168+270795586+270718032+270637688
2528+270438534+270189256+270085081+270172570+270322289+270384415+270232647
2518+269813418+269270539+268888090+268843355+269063258+269299278+269348317
2508+269247931+269205555+269301878+269365777+269185581+268759223+268300253
2498+268048667+268090578+268319021+268532226+268580732+268453622+268234872
2488+267996184+267772165+267602266+267509818+267462483+267413616+267342105
2478+267235796+267093912+266928420+266725599+266471843+266215178+266000544
2468+265792660+265575925+265439603+265451501+265544810+265591267+265492517
2458+265200828+264758542+264307906+263995141+263868530+263871733+263905052
2448+263893687+263807300+263637366+263402311+263163811+262980412+262853664
2438+262744048+262612754+262458541+262328504+262238793+262118536+261941491
2428+261835026+261907260+262065880+262145415+262104072+262013036+261958297
2418+261986742+262064314+262091089+262010711+261879434+261801088+261829602
2408+261965201+262199155+262485816+262705150+262764091+262720441+262703291
2398+262771099+262994566+263645390+265163601+267957717+272374321+278874002
2388+288086096+300604586+316796270+336765960+360289086+386740636+415276434
2378+445038357+474956422+503621190+529973938+553903086+575424270+593753857
2368+608070572+618623917+625872467+629014508+627186960+621842824+615216359
2358+606447791+592234252+571231702+545814355+520859820+501808794+492365588
2348+493705531+504676676+521097682+536423185+546260222+550638859+551412264
2338+550313559+548712405+547860447+548790372+551260049+553313544+553116181
2328+550773029+547305446+542953568+537407763+530713250+523229523+515153569
2318+506480566+497308110+488013813+478965093+470005911+460489007+449920234
2308+438361166+426233528+414041664+402312438+391502703+381759302+372780387
2298+364042778+355275312+346675041+338588894+331086812+323976943+317159038
2288+310817513+305261859+300633720+296770412+293347977+290158377+287226424
2278+284665176+282490873+280603541+278882095+277258643+275737436+274364864
2268+273164790+272110062+271178259+270404544+269821201+269356221+268862898
2258+268263146+267606536+266983693+266428624+265896163+265292794+264558958
2248+263757417+263041057+262524713+262227618+262104330+262066793+262011141
2238+261870618+261626970+261301945+260982724+260779575+260694548+260611673
2228+260452725+260241104+260009630+259772577+259582291+259491203+259462722
2218+259407398+259279461+259087160+258870340+258718245+258741594+258969038
2208+259292531+259526725+259526432+259294080+258987067+258769144+258657892
2198+258569576+258482242+258464145+258540580+258633114+258683669+258763376
2188+258959482+259200771+259327175+259304825+259235897+259190594+259156880
2178+259108460+259032352+258938079+258865931+258830443+258780887+258671685
2168+258525066+258398403+258336312+258341736+258359540+258326394+258240884
2158+258138139+258032604+257935420+257869747+257820605+257728845+257580607
2148+257448107+257401427+257430148+257504207+257654425+257909230+258210717
2138+258501183+258844253+259342810+259982355+260683665+261473773+262452928
2128+263597625+264766136+265927983+267206334+268644390+270126923+271581785
2118+273051920+274526945+275877805+276978232+277760075+278171986+278183867
2108+277800419+277031955+275910073+274553962+273159177+271886319+270771479
2098+269750500+268770726+267866904+267097373+266425610+265742742+265013693
2088+264331186+263811983+263485977+263289044+263141340+263033688+263013455
2078+263078887+263154909+263190311+263199489+263196785+263177707+263176811
2068+263266763+263462697+263674576+263805785+263873696+263962201+264097439
2058+264240649+264348887+264391366+264394379+264482867+264757303+265138960
2048+265456357+265662106+265875741+266215264+266616121+266859114+266827672
2038+266662784+266582475+266652728+266815912+267029737+267280668+267521440
2028+267692235+267824132+268043622+268413553+268865361+269357323+269922896
2018+270460264+270709577+270585911+270321669+270192011+270293861+270580711
2008+270919028+271136744+271169529+271132336+271174936+271322881+271485462
1998+271592667+271757590+272242303+273089991+273871972+274096110+273805472
1988+273435937+273246218+273205100+273240243+273342541+273516039+273726833
1978+273880667+273903258+273847073+273825722+273918204+274228180+274837954
1968+275575630+276070295+276183424+276141289+276171474+276287994+276462646
1958+276747998+277161597+277609478+277989173+278302678+278628512+279000114
1948+279411457+279998984+280978534+282149818+282773522+282421705+281609161
1938+281084121+281009115+281137104+281301389+281477040+281647111+281813325
1928+282095079+282728116+283768208+284822678+285495336+286009131+286685594
1918+287068113+286528489+285500622+285024208+285443042+286229671+286716141
1908+286705396+286490951+286419338+286515695+286604665+286682633+286974528
1898+287628331+288454719+289071794+289429569+289944311+290785077+291400654
1888+291258081+290651872+290216680+290201734+290527138+291009750+291402858
1878+291568022+291626945+291846797+292578842+294230758+296809017+299318091
1868+300233518+299223903+297554907+296492499+296320413+296652187+297030280
1858+297252336+297413539+297707225+298184465+298810718+299660713+300929301
1848+302860886+305485016+307963509+308702374+307346831+305506781+304553472
1838+304470821+304660436+305004953+306077038+308291151+310896134+312376721
1828+312425485+312157318+312015262+311406504+310294780+309511044+309529537
1818+310023445+310557541+311229183+312415981+314016859+315287203+315658443
1808+315438867+315432806+316288794+318204331+320676487+322583312+323156289
1798+322939434+323306610+325192118+328212284+330455738+330163051+328211905
1788+326884566+327161274+328457378+329937896+331394480+332785666+333851139
1778+334714152+336211131+339140244+343166374+346390963+347054925+345682473
1768+343773307+342323404+342243508+343978763+346491453+348132521+348869353
1758+349669861+350522680+351304213+353107793+356862346+361441136+364348449
1748+364735703+364045533+363825131+364692896+366491448+368380193+369501558
1738+370533248+373349301+378237032+382023785+381620311+378835046+376313815
1728+374694237+374113064+374583623+375680469+377482671+381108805+387221009
1718+393959982+397199345+395448042+391643382+388696775+387740367+388992390
1708+392099787+395850346+398907842+401772453+406218725+412047126+416088306
1698+416758915+415491429+412790364+409471484+407825423+408807385+411532763
1688+415518325+421710046+429714266+434656272+433039276+428975953+426907925
1678+427970643+431371692+435209964+438119102+440849405+444160295+446441287
1668+446061472+444973063+445950685+448991204+451818415+452993331+453860959
1658+456637718+462672988+472251122+482685105+487293098+486526476+487563779
1648+491975132+495868883+495734816+493917909+494100085+497236410+503134617
1638+511562079+521038208+527699799+529747336+530942640+534947178+542204441
1628+551091407+560116434+569357524+579175552+588822493+597932616+607978829
1618+620357381+633321859+642783248+648380158+653192298+658997833+665532073
1608+671508420+675776786+678395992+680474248+682882763+685685799+688745190
1598+692153023+695919767+699644911+702758438+705082167+706976043+708988523
1588+711527351+714631648+717907240+720887424+723442644+725909084+729120552
1578+733816775+739117726+742733702+745096483+749335853+756646529+764916506
1568+771563702+777349883+784598364+794191168+806566965+823319539+843551369
1558+857098605+858710090+857712150+859462695+862650883+864828803+865139088
1548+864444407+864372432+865841758+868382308+870369304+868785093+861705977
1538+853743599+850062536+849773671+848816299+844582301+839132441+836021118
1528+836206256+838234164+840469250+842605844+844156443+843519549+840639097
1518+837487275+835292206+834351639+834905538+836951491+840423998+845540087
1508+851199743+852603981+846800031+839376950+835090951+833892720+834154999
1498+834164779+832815022+830744755+829788760+830632074+832154366+832755926
1488+831912681+830010264+827570411+825515710+824749330+825205425+826424525
1478+828792955+832926807+837906728+840929684+839589431+835080206+830943530
1468+829070731+829178521+829917489+830207731+830774234+833364512+838357795
1458+842997746+842381515+836440984+830218958+826376726+824816966+824422652
1448+823748083+822228685+820655357+819698053+819191679+819186238+820227156
1438+822126956+823382216+822939276+821743593+820913434+820404787+819803502
1428+819215992+819038017+819242302+819533302+820070533+821205192+822258233
1418+821688286+819398237+816967751+815475214+814764003+814087092+813171803
1408+812538353+812434557+812194387+811411339+810823209+811098230+811994992
1398+813241092+814907333+816317839+816118031+814417282+813056849+812952089
1388+812693116+810537031+807638120+807173829+810470290+815962165+821161525
1378+824791275+827247797+829547902+832092171+834506885+836578185+838688812
1368+841205669+843951331+846472113+848393264+849324946+849089666+848266464
1358+847775173+847840743+847961344+847949291+848245939+849024992+849955434
1348+850962948+852236461+853427046+853967170+854237231+855167329+856524801
1338+857053422+856750438+857117201+858754997+860458362+861028791+860798402
1328+860871892+861808946+863553844+866060369+869386516+873173992+876524589
1318+878812365+880387071+882054759+884191008+886785833+889966238+893918671
1308+898379821+902564434+905705512+907701393+909350622+911813480+915400872
1298+918906715+920722279+920539552+919338153+918085923+917068422+916079091
1288+914966886+914183356+914407477+915453493+916167459+915546544+913549148
1278+910842263+908321687+906833007+906783899+907715374+908369900+907756838
1268+906478711+906274219+907870551+910190010+912137885+914133765+917008707
1258+920293459+922744815+924176741+925599714+927646149+929975595+932216260
1248+934363461+936074885+936705649+936192318+934979072+933193469+930886201
1238+928803881+927858975+928120496+928935296+929561377+929263489+927655034
1228+925495987+924100703+923885948+924140788+924004828+923296854+922546246
1218+922549070+923732080+925731404+927424714+927645874+926566522+925993476
1208+927542905+930897703+934461058+937300322+939527694+941056873+941417506
1198+940981936+941132085+942797018+945370973+947504329+948916006+950748720
1188+953808455+957204855+959413217+960203360+960559516+961259569+962600511
1178+964929750+968268983+971694172+973969206+974683448+974397545+973978642
1168+974024583+974739030+976217654+978396607+980735695+982519852+983772908
1158+985291480+987210013+988358723+987915783+987081629+988016066+991261421
1148+995025342+997236872+997669343+997679261+998726035+1001148738+1003360751
1138+1003096337+1000601934+999008563+1000471208+1003850526+1006806121
1130+1008767220+1010829566+1013623372+1016148838+1016269301+1013492439
1121+1010869789+1011550557+1014417509+1015677866+1013942404+1011318377
1113+1010611436+1013714081+1020369335+1026635167+1027713554+1023907481
1104+1019983218+1019233437+1021579138+1025490797+1029406657+1032343793
1095+1034909414+1038659284+1043612275+1047726704+1049043884+1047416970
1087+1044307369+1041726802+1040829765+1041221668+1042069252+1043043775
1078+1043978694+1044661390+1045113835+1046126790+1048872796+1052859530
1070+1055370945+1054825519+1053197159+1052687203+1052236549+1049544266
1061+1045504498+1044101775+1047618707+1053858641+1058594398+1059867841
1053+1058866251+1057604379+1057287826+1057951168+1058556517+1057368755
1044+1053095911+1047057301+1043796587+1047154829+1055635979+1063277534
1035+1065834270+1064532725+1063131655+1063854988+1066225415+1068109648
1027+1068327296+1068437772+1070520436+1073502686+1073741823+1069733256
1018+1063959266+1059280883+1056335343+1054894188+1054926973+1056109431
1010+1057797644+1059283706+1059938646+1059194444+1057053304+1055013549
1001+1055158946+1057408152+1059352238+1060072678+1061342815+1063863391
993+1066054121+1067091596+1067631857+1067652933+1066392990+1063951552
984+1061543381+1060121786+1058794344+1055353658+1048898074+1041464179
975+1035979123+1033522808+1033918637+1037107445+1041981918+1045297389
967+1044074707+1039036379+1033780197+1030460662+1028106834+1025310549
958+1022475624+1020169596+1017420628+1013096059+1008007038+1004356556
950+1002990888+1002284981+1000479748+997833267+995222946+992521089+990169121
940+989725355+990917387+991052452+989035220+986864257+986142440+986101252
930+985904130+986517261+988905872+992017814+993609670+992479144+989800980
920+988014964+988387857+989710478+989383662+986392872+982821734+981398142
910+982518543+984118664+983770222+981270929+978923231+978622519+979379395
900+978838514+976595093+974058538+971966920+970398551+970147361+971928212
890+974467936+975421795+974342788+973087666+973169146+973658164+971997983
880+967189493+961754234+959570185+961939028+966225922+968520930+967315192
870+964116672+960970842+958451299+956141896+954162752+953676352+955438468
860+958219463+959556272+958349432+955873487+954058061+953976857+955709150
850+958152447+959411496+959070285+959384634+962276519+965827545+966202435
840+963192704+960332777+959532992+959523556+959040118+958449164+958181444
830+957852838+957265535+956646480+956123231+955920598+956237427+956510794
820+955676365+953818787+952577302+953288995+956027907+960548772+966329098
810+971143855+972110388+969681348+967996028+969731765+973192564+975258973
800+974783731+972387682+969052168+966117787+965385294+967603161+971177329
790+973678689+974457260+974615674+975301056+977065515+979785210+982225684
780+982606842+980695059+978143695+976609144+976688902+977766187+978378906
770+977375593+975211311+973410900+972291532+970293998+966914610+964721538
760+966189211+969865866+971611384+969547247+965808191+963684063+964819204
750+967762195+968953470+967311128+966022670+968006773+972494371+976328131
740+977383101+976262010+975155453+975762248+978252106+981970568+985831397
730+988256373+988169934+984865415+977918747+969026960+962370534+961336159
720+964624286+967605985+968199969+968472373+969962637+971230501+970994257
710+970474934+971456069+973623244+975126525+974670912+971661939+966732847
700+962570136+961578946+962781929+963068246+961342840+959507853+959474792
690+961296142+963498719+963779319+960778265+955604665+949610342+942687092
680+935177503+929262663+927064149+929115269+934591440+940900043+944372206
670+943269092+939774958+937498959+935702956+932303319+928526174+926523131
660+925482625+922345267+916976542+912651491+910698589+908801613+905581260
650+903205943+903811292+906699526+909537344+909843428+906682789+902417798
640+899912306+898129320+894514102+890546723+890251590+894012893+897570462
630+898085997+896537946+894475187+893039817+894055941+897880128+899735984
620+893440743+880541628+868987174+861997459+857320935+853867782+851623880
610+850556651+851446112+855924962+863747316+871549971+876925722+881480886
600+887996874
##END=
