##TITLE=<SNM>
##JCAMP-DX=4.24
##DATA TYPE=INFRARED SPECTRUM
##DATE=3/5/2025
##SAMPLING PROCEDURE=Instrument type and / or accessory
##ORIGIN=Admin
##XUNITS=1/CM
##YUNITS=ABSORBANCE
##RESOLUTION=4
##FIRSTX=4497.3318
##LASTX=599.83466
##DELTAX=-1.4281778
##MAXY=1.7143764
##MINY=0.17843354
##XFACTOR=1
##YFACTOR=1.5966375e-09
##NPOINTS=2730
##FIRSTY=0.19826186
##XYDATA=(X++(Y..Y))
4497+124174622+124631866+125019216+124554095+123376674+122319562+121973883
4487+122202938+122605137+123074028+123598982+123943718+123924129+123693542
4477+123467100+123334676+123503684+124165971+124930713+125027840+124349706
4467+123726776+123906490+124689860+125293536+125239602+124559275+123420239
4457+122136050+121324550+121378606+121905669+122255230+122319711+122297704
4447+122157002+121848571+121483974+120975530+120151020+119350841+119224176
4437+119923196+120977350+121744733+121743464+121034775+120391238+120466060
4427+120884283+120827875+120238861+119668438+119309030+118963613+118601657
4417+118324210+118067529+117743456+117398467+117009269+116448954+115792024
4407+115341136+115273856+115462286+115621663+115528400+115197625+114922857
4397+114981962+115276208+115469650+115486113+115588130+115894583+116146131
4387+116132888+116027725+115958485+115591480+114630049+113460747+112746784
4377+112591271+112591953+112483346+112302289+112237538+112565391+113352066
4367+114184415+114533454+114257827+113504994+112503580+111755823+111898877
4357+112971174+114189184+114697870+114275223+113327427+112560566+112509217
4347+112976102+113172567+112755912+112272107+112295420+112702267+113067535
4337+113258476+113374352+113454083+113479282+113494979+113594094+113873258
4327+114376447+114916819+115068477+114590197+113777251+113155628+112908326
4317+112842605+112821568+112928392+113234463+113641748+114035005+114443187
4307+114867793+115073097+114840765+114355934+114021865+113986223+114107559
4297+114158666+113878904+113191587+112553987+112652392+113613534+114953357
4287+116262045+117423461+118198870+118203929+117475641+116675592+116490280
4277+116936763+117376629+117215376+116496990+115730306+115275517+115121936
4267+115191167+115560607+116280123+117126658+117711015+117865884+117790045
4257+117752229+117870905+118160214+118509206+118747455+118975997+119437096
4247+119845958+119548642+118629189+118038906+118351864+119163569+119849383
4237+120152831+119970822+119340183+118758570+118842071+119536033+120180951
4227+120429074+120587872+120927121+121168459+120989921+120641321+120599949
4217+120830283+120927951+120907223+121234638+121966164+122467515+122290583
4207+121863167+121951129+122681237+123398933+123478560+123067019+122806671
4197+122929481+123039562+122825560+122511519+122490409+122838831+123217007
4187+123154991+122592753+122047332+121962151+122147529+122244862+122417976
4177+123108000+124321260+125529265+126211776+126380047+126498555+126856134
4167+127240880+127380396+127348002+127270260+126984544+126303583+125436282
4157+124896508+125003425+125620279+126414214+127153356+127647157+127750369
4147+127671058+127864388+128304908+128340690+127630022+126751895+126522765
4137+127057919+127791732+128200706+128275294+128375781+128781368+129342813
4127+129590907+129273180+128667190+128258897+128281575+128674245+129280843
4117+129919899+130386625+130561803+130487243+130223553+129738712+129133626
4107+128813510+129071759+129683555+130280866+130794965+131218695+131474293
4097+131732309+132223141+132668990+132599395+132124876+131719569+131478129
4087+131148792+130672136+130322089+130402650+130905410+131481675+131874336
4077+132252325+132819902+133327104+133382112+133012252+132526412+132060031
4067+131568004+131054623+130616726+130400531+130564192+131124452+131841428
4057+132422295+132792902+133012018+133037870+132832081+132602689+132645219
4047+132993829+133446583+133797059+133869193+133575545+133151750+133057339
4037+133396009+133736219+133746447+133680819+133958667+134495716+134765640
4027+134490536+134055150+134140536+135011533+136275199+137335484+137924368
4017+138098696+137912384+137395718+136761925+136304691+136129168+136183522
4007+136395527+136629912+136796317+137085597+137703170+138339324+138419036
3997+137918983+137401570+137242856+137354663+137580602+137831749+138006646
3987+138224092+138818304+139742134+140395414+140341573+139796666+139274270
3977+139150413+139525930+140089269+140283131+139934045+139425322+139088443
3967+138918287+138970056+139427412+140162187+140745666+140968367+140959136
3957+140871604+140788513+140833918+141218085+142097845+143146539+143492713
3947+142809680+142092320+142393948+143346141+143765941+143246363+142347322
3937+141816731+142271371+143936713+146156277+147548709+147323349+146282168
3927+145825120+146279919+146728940+146460248+146057349+146557347+148015034
3917+149199352+148737078+146630302+144230642+142895206+143153175+144945351
3907+148218489+152869827+157976132+161649967+162501569+160658950+156961279
3897+152640379+149621103+149507784+151893118+153999857+153647617+152596851
3887+153584620+156018503+157321321+157482872+158159559+158328540+156172756
3878+153520149+153425206+156149126+160027676+163761633+165976503+165252891
3868+162881043+161654745+161832200+161268440+159018908+156729432+156453274
3858+159350262+165811330+174316253+178958949+175034901+167148409+160641180
3848+157296272+157429377+160297545+164301986+168400428+172457189+175465425
3838+175459582+172708560+169834848+168051324+166618640+165143510+164283899
3828+164268911+164809879+166800163+171622535+177656589+180303046+178908178
3818+177117729+175470371+171899925+167218648+164456799+165249885+169125720
3808+173520162+175741621+176847786+179553376+182909167+183524891+181698492
3798+180065544+178683201+176531832+174328125+173410371+173984527+175619827
3788+178026132+180719907+182914318+184666092+187157363+190839710+194390967
3778+196691736+198667685+201942111+207302969+214452596+221863635+227765798
3768+232169722+236293661+240855292+246724061+255133845+265754280+276116252
3758+284589742+292779066+303420855+317870572+334822294+349620033+359175144
3748+367264065+378647777+392469861+402245339+406122312+410076076+418763307
3738+432740503+449414330+464467752+474473638+479093991+480883208+482906717
3728+486208676+489211461+490072173+489507872+489505669+490663277+492665619
3718+495709394+500450439+507640085+517775325+529744206+540125982+546441962
3708+550048694+554211066+561275652+570557198+578316446+581887377+582867773
3698+584161752+586840837+590427634+594732350+600746469+608632233+614979535
3688+615664453+611799538+607415978+605426440+607441214+613420913+621643294
3678+629032551+630571275+624176749+617132023+616284228+619158705+618448290
3668+612993245+608252835+607218457+608950632+612129547+616863312+623033028
3658+628653189+631860028+634528100+640373892+649371421+656779754+657821448
3648+654039707+650505324+649636847+651220891+653679086+654989193+654431014
3638+653516545+653980873+656272570+660928238+669031682+679757802+687692283
3628+687577377+682584532+678287544+676722837+678073411+681814909+685881040
3618+687675484+687550947+688376642+692092829+698353447+705006492+709309006
3608+709675077+706897325+703370557+701458445+702549118+706198632+710390495
3598+713316004+713998869+712145293+709343425+708634279+710897380+713415604
3588+713460327+712429459+712788064+713312346+711612052+708448742+707097944
3578+709290191+713700965+717767843+719413410+718115324+715108133+712270204
3568+711341922+713257469+716642900+718459519+717811446+717055262+717808161
3558+718348197+716694193+713947576+712533016+713004213+714083089+714619317
3548+714836361+715863720+717875432+719272446+718651029+716971715+716383522
3538+717149785+717324347+715766957+713737326+713044680+714057480+715857448
3528+717217355+717530341+717602615+718660511+720712466+722624877+723541959
3518+723935357+725073665+726954568+727758760+726704448+725777734+726493227
3508+726845859+724086101+719042784+715107835+714221663+715392449+716200822
3498+715214752+713278225+712452082+713785707+716332005+718359844+719171726
3488+719717063+721202104+723092042+723575408+722311443+721159397+721391897
3478+722108211+722463755+723459158+725744210+726994363+724237816+718844181
3468+715805782+717804279+722171674+723770726+720651093+715646750+712174859
3458+711038941+711240978+711964236+713442782+716313414+720103442+722886644
3448+723504553+723350375+724059073+724535645+722807577+719796056+718259199
3438+718462505+717719835+714864061+712222942+712395114+715194220+717965401
3428+718115846+715542820+712916409+712915215+714866824+715619648+714282737
3418+713270609+714069948+715407083+715751577+715226623+715176898+716772664
3408+719470004+720876276+719189795+715438665+712495461+712687643+716121605
3398+720459584+723188132+724319422+725308628+726108117+725493941+723420707
3388+721354864+720750768+721553243+722077525+721159546+720048192+720602787
3378+722414328+723425187+722802723+721783951+722033399+724007182+726427598
3368+727244782+725534632+722542300+720656618+721099070+722492127+722483316
3358+721022242+720383353+721964485+724749479+726859447+727258221+726144253
3348+724560134+723372325+722719773+722586575+723139975+724020323+724098943
3338+722794959+720890313+719672489+720091496+722494217+726265356+729960937
3328+732347381+732932363+731708193+729201019+726720649+725903466+726979505
3318+727671330+725541277+721567877+719057343+719232128+720484670+721584601
3308+723003641+724940392+726370257+726663831+726668908+727442339+728863992
3298+729910091+729745311+728497622+727392689+727812442+729184818+728806726
3288+725637592+722406339+721678676+722391705+722145244+721271989+722113064
3278+725256887+728879820+731107457+731524374+730299980+727407248+723635885
3268+720948848+720871423+722821016+724264321+723227704+720728444+719565945
3258+720930855+723692106+726606789+729342505+731525494+732700610+733176286
3248+733388851+732600264+729698273+725057687+720230966+716491932+714592438
3238+714980684+717498610+721031724+724012035+725337224+724781509+722915838
3228+720549253+718432939+717330245+717525637+718311537+718748613+718926161
3218+719361071+719607831+719111922+718493640+718587640+719177027+719242432
3208+717997207+715804363+714080252+713891057+714715856+715275901+715174359
3198+714824788+714431092+713966541+713635859+713651315+713737326+713286363
3188+712234664+711224552+710491812+709496633+708177567+707561301+708287769
3178+709459974+709758998+709095470+708288814+707673892+706843120+705368681
3168+703288727+701103499+699514377+698869366+698699434+698085856+696630007
3158+694827874+693641707+693901085+695438391+696604473+695669696+692987960
3148+690672893+690152494+691237717+693162746+695083444+695762203+694296275
3138+691351876+688810731+688064850+688814613+689477319+688909285+687462173
3128+685925315+684246898+682264155+680726625+680282830+680376532+680461274
3118+681070223+682209203+682168437+679795954+676723733+675576466+676668035
3108+677510454+675830767+672222019+669028620+667730012+668293641+669981466
3098+671682208+672161393+671147100+669669077+668610136+667687827+666401762
3088+665237248+665140634+666124166+667172953+667596067+667585091+667113596
3078+665558148+663158712+661466557+661444680+662221919+662516165+662321221
3068+662317861+662453374+662053854+660946755+659694512+658778326+658042525
3058+656928408+655066618+652824198+651293239+651335274+652523158+653374686
3048+652832859+651184232+649421893+648264173+647967911+648506677+649428314
3038+649649390+647926847+644063947+639597624+636742969+636441407+637714257
3028+638974862+639612183+639922182+639776142+638352399+635609365+633102938
3018+632376768+633060679+633473116+632867601+631988597+631505828+631174923
3008+630630034+629889753+628915853+627560501+626042981+624767742+623774466
2998+622956200+622464770+622280428+621838910+620675292+619066534+617647420
2988+616812430+616641265+616710142+616007304+613937915+611410209+610059038
2978+610526986+612076984+613419644+613452831+611775272+609055571+606445064
2968+604426669+602776772+601528487+601167940+601830161+602934199+603671045
2958+603590596+602825079+601881007+601063823+600115831+598630416+596623855
2948+594497760+592712388+591515731+590708739+589864229+589002995+588687134
2938+589201187+590024455+590313027+589576218+587846805+585629211+583729119
2928+582658456+582151160+581636958+580932963+579959063+578364342+576303763
2918+574942886+575093704+575774442+575187854+572933749+570286321+568513530
2908+567859186+567956024+568365436+568684470+568784854+568926975+569118634
2898+568626532+566807636+564057510+561209538+558556958+556204971+554762823
2888+554789888+555874066+556930954+557220832+556646227+555375132+553672001
2878+551879088+550188463+548562197+547058191+545986706+545565646+545716987
2868+546263556+546910097+547038704+546037066+543996497+541766994+540078683
2858+538766486+537165568+535209890+533688712+533259999+533589970+533676990
2848+532973070+531985095+531451182+531180045+530358307+528848029+527334355
2838+526265484+525442439+524537788+523450774+522353717+521639680+521484979
2828+521444885+520832576+519447620+517748148+516429940+515864706+515755810
2818+515326351+514013332+512041042+510164992+508833121+507870159+507043792
2808+506453210+506092775+505627701+504911872+504146990+503332233+502171751
2798+500684619+499342669+498451046+497795321+497009571+496028503+495043216
2788+494170857+493317873+492355060+491393143+490791585+490664136+490415136
2778+489236995+487192730+485245452+484038492+483234262+482249461+481077070
2768+480025184+479114113+478199606+477384663+476820623+476301045+475539448
2758+474670113+473975115+473273136+472093279+470390185+468669433+467416294
2748+466655780+466048473+465230543+464015893+462445773+460834627+459644279
2738+459052166+458684042+457937788+456508669+454604919+452849487+451861176
2728+451609899+451318640+450311888+448752296+447265388+446142722+445225602
2718+444342940+443562229+443009389+442589635+441999949+441022017+439749391
2708+438519248+437635801+437124586+436728089+436169239+435359634+434343250
2698+433162907+431821704+430333415+428809138+427450015+426397943+425654302
2688+425163917+424842047+424517040+424018554+423310864+422432681+421404388
2678+420246930+418979567+417615778+416258186+415130929+414409463+414053919
2668+413857257+413606951+413179506+412583922+411943241+411299014+410478471
2658+409425279+408528766+408147538+407931838+407198762+405891044+404592137
2648+403705032+403163690+402861903+402820876+402852048+402502477+401574195
2638+400400759+399378888+398521200+397691324+396954440+396415002+395962359
2628+395428894+394827822+394236530+393559078+392627512+391545500+390702744
2618+390335441+390236625+389989603+389382931+388568100+387875006+387450810
2608+387115761+386642586+386009446+385275773+384462957+383671756+383079681
2598+382728990+382508175+382332233+382143112+381761063+380984757+379929885
2588+379048305+378624221+378434764+378109384+377598280+377066943+376601160
2578+376241510+376039920+375915047+375680569+375286237+374849647+374488392
2568+374266158+374191197+374158644+374016374+373742810+373457449+373259667
2558+373143679+373021941+372766968+372328623+371856494+371585617+371558776
2548+371596107+371560344+371475341+371360995+371162354+370881399+370604325
2538+370385862+370218132+370072652+369916532+369755149+369657079+369650882
2528+369653122+369572636+369377281+369035848+368574134+368191413+368104991
2518+368277275+368466582+368495850+368354066+368128398+367934947+367847405
2508+367851399+367864353+367737949+367300015+366559473+365801684+365300099
2498+365032583+364832673+364649227+364490942+364287038+363974874+363638107
2488+363422071+363292195+362986115+362343605+361608401+361168265+361038837
2478+360909036+360691058+360675752+361032491+361436304+361387325+360791442
2468+360058068+359646004+359648468+359832399+359951188+359924197+359762627
2458+359480327+359162227+358991548+359038511+359092567+358876679+358382972
2448+357871458+357579191+357506283+357459618+357290246+357045464+356795643
2438+356412623+355755405+355011988+354565020+354543442+354736557+354890101
2428+354887376+354721625+354493866+354383552+354461313+354562780+354476955
2418+354241319+354108644+354202793+354379744+354483301+354526830+354537544
2408+354483861+354479157+354758881+355295856+355698474+355645240+355258450
2398+354942328+354930270+355076235+355112633+355009113+354895029+354702810
2388+354192565+353319534+352245884+350955675+349168473+346696017+343617076
2378+340034535+335962842+331598731+327403620+323682990+320299575+317004560
2368+313892767+311387740+309845451+309214327+309173020+309714772+311384454
2358+314723838+319714070+326000297+333415051+341722846+349868735+356141224
2348+359119632+358502992+355639304+352746311+350692302+348560047+345479836
2338+341511103+337090137+332611867+328462001+325029980+322610908+321235285
2328+320572131+320171715+319875304+319887922+320448489+321570558+323097187
2318+324802968+326417027+327741058+328829902+329955890+331316618+332839215
2308+334322651+335664639+336864468+337921207+338805550+339413566+339588090
2298+339399492+339282122+339602761+340243255+340858252+341298575+341533203
2288+341471643+341151415+340857878+340828125+340995332+341152983+341235074
2278+341313246+341396122+341375590+341184976+340892895+340601860+340352785
2268+340171280+340118158+340211822+340354316+340420766+340394148+340331469
2258+340247100+340129656+340020312+339963531+339926984+339855905+339770752
2248+339762203+339895663+340116963+340289434+340375147+340491732+340716729
2238+340986186+341273227+341650087+342070140+342343293+342437032+342550034
2228+342806613+343097163+343256567+343242456+343155847+343184929+343455805
2218+343894934+344324394+344668999+344971794+345277650+345611206+345993031
2208+346394828+346749775+347063097+347460004+348078323+348936160+349912487
2198+350799966+351383641+351617858+351780250+352255030+353066763+353830637
2188+354257372+354491738+354844967+355405908+356057565+356720458+357396192
2178+358021306+358470701+358738367+358967283+359285271+359736831+360354217
2168+361167406+362160831+363312354+364644598+366184293+367943421+370033566
2158+372717616+376168340+380177616+384269319+388106274+391658912+395030158
2148+398234346+401147013+403730977+406275893+409131854+412228639+415256474
2138+418250822+421535870+425184599+428925388+432496169+435887163+439321051
2128+443020140+446964198+450968098+454900248+458594820+461657447+463619845
2118+464274525+463735871+462223167+459960364+457333580+454923617+453173934
2108+452164755+451893057+452534933+454180312+456472308+458699497+460124174
2098+460118985+458219565+454365588+449058151+443001475+436539118+429594216
2088+422143997+414548559+407331213+400784264+394939816+389835723+385588274
2078+382223300+379631495+377637142+375953536+374242602+372435130+370831076
2068+369724724+369073441+368604335+368110777+367569622+367027571+366488916
2058+365958065+365484442+365084137+364731020+364472687+364428076+364656731
2048+365131698+365810382+366692559+367883205+369612468+372142153+375668959
2038+380321678+386172435+393163478+400997426+409158583+417105160+424337103
2028+430208877+433954929+435133144+433903972+430858293+426738927+422166620
2018+417399518+412417125+407258044+402157535+397415370+393226867+389537446
2008+386042932+382494549+378985215+375793608+373035903+370599958+368312628
1998+366115827+364233095+363083961+362720839+362456383+361478451+359754078
1988+357870823+356265052+355042264+354216569+353738466+353432237+353089908
1978+352595193+351972581+351346646+350822439+350472794+350434566+350778351
1968+351218039+351239020+350669940+349873028+349270724+348960239+348838091
1958+348814908+348775598+348534923+348020086+347436448+347113830+347178003
1948+347518241+348127190+349131702+350184110+350301443+349008658+347169006
1938+345949092+345589889+345593174+345559091+345495180+345557448+345777965
1928+346115254+346680077+347580472+348517564+349084142+349468468+350033179
1918+350327463+349588040+348138202+347117787+347070862+347556804+347841194
1908+347633856+347196855+346895591+346787479+346669512+346427904+346280557
1898+346593730+347328896+347909324+348066414+348368686+349187774+349767156
1888+349249893+348023259+347038981+346608587+346486738+346449444+346435743
1878+346433317+346406139+346431338+347022443+348936720+352140385+354995077
1868+355309818+352904931+349815388+347804721+347128725+347158777+347295559
1858+347327029+347313777+347347524+347448095+347694034+348295554+349520583
1848+351698382+354854935+357708208+357944366+355276817+352279183+350903224
1838+350858837+350974975+351014210+352026786+354852172+358460285+360518363
1828+360365193+359523893+358755950+357431471+355593163+354312100+354104911
1818+354491589+354961292+355664279+356990886+358735977+360007521+360190892
1808+359741012+359660265+360629349+362737824+365423330+367572646+368370641
1798+368341560+369041560+371621455+375543152+378236833+377477588+374655860
1788+372870899+373371811+375397560+377862064+380305812+382357095+383612474
1778+384576668+386713739+391138998+397223076+402067679+403006600+400942997
1768+398380908+396837929+397300614+400120064+403891763+406383482+407376459
1758+408181248+409157911+410418106+413157444+418183700+423984097+427546629
1748+427773790+426363897+425430575+426128037+428471513+431277973+433134834
1738+434720745+438584727+445326808+450708496+450322900+446709374+443806451
1728+442579220+443072442+445227767+448372001+452233631+457993934+466664814
1718+476165122+481296242+480122806+476452349+474012335+474212281+477303803
1708+482834070+489238526+494646981+499508718+506305191+515427593+523059952
1698+526431869+526977169+525609609+523391828+523169743+526433885+532320630
1688+540021641+550409278+562997785+571671614+571759566+568448499+567630270
1678+571049262+577865371+585483880+591872358+598110987+605404751+611268947
1668+612796023+612677347+615491982+621802960+628216711+631893253+634384897
1658+639141061+648366162+662499291+677662019+684314169+683121506+684099513
1648+689315824+693563834+692478313+689591329+689762904+693701661+700359858
1638+708795849+716422048+717851540+712248701+706117847+703719904+704445476
1628+705915511+707078905+708514072+709567040+708298521+705592072+704774888
1618+706446139+706559253+701738654+694885961+689718331+686453479+683630333
1608+680431857+677279597+674870679+673361447+672540979+672314676+672711732
1598+673486134+674044611+674002650+673560199+672985446+672042232+670342087
1588+668024780+665803116+664325915+663526128+662971981+663177975+665693064
1578+670892948+675624250+675668600+673076609+673310004+677648431+682814792
1568+685392149+686269511+688181921+692787864+701741342+717193090+737354188
1558+750303465+750649079+748922280+751604986+758802695+768666835+779107295
1548+788935522+798613452+808948862+819655197+829894442+837244613+836625584
1538+829521278+824354095+824390904+826907560+827940967+827625591+829035746
1528+833087318+838222694+843499556+849586509+855686602+859004762+859513813
1518+859682102+859356424+857423107+855865046+858023396+865139275+876019424
1508+886751966+889431835+881240364+871711983+867505038+868599966+873109893
1498+878061823+879736508+877491997+875221504+876545274+881722611+887559219
1488+889544127+886688428+882349852+879963930+880238764+882032386+884732339
1478+888654969+893550678+898141315+900666707+899482929+895336610+891957823
1468+892056752+895113667+898205226+898930649+898640286+900619669+906110365
1458+912209413+912799398+906987353+900709488+897413353+897002634+898047165
1448+898507759+897298522+895579488+894886842+895119939+895590463+896557196
1438+898264807+899413493+898802826+897846845+898392107+900152206+901411392
1428+901304923+900666333+900515738+901177399+902840437+905465130+907539409
1418+906664810+903027019+899245875+897018014+896527331+897048775+897371020
1408+896829267+895839538+894830546+893634225+892516674+892366676+893472655
1398+895155628+896464764+896315737+893900771+890293442+887697345+886405008
1388+884339539+880225996+876193015+875213366+877562703+881307038+884854861
1378+888165256+891645733+894731469+896353367+896701444+897324505+899319418
1368+902531184+906239532+909750023+912380167+913696396+914095169+914366419
1358+914632666+914534261+914291980+914854265+916666702+918771668+919781407
1348+919728620+919982623+921207614+922768363+924370551+926686289+929819659
1338+932654603+934439266+935486112+935926771+935489173+934712232+934865888
1328+936331816+938130889+939217754+939518122+939680663+940363528+941717014
1318+943313527+944816114+946393065+947885647+948483696+948088058+947765440
1308+948018547+948055804+947311043+946195731+945150976+944337974+944010802
1298+944114807+944059258+943503468+942663289+941787869+940988231+940214053
1288+939052525+937069334+934438967+931708029+928959470+925805195+922300228
1278+919209640+917260047+916414044+915966067+915217350+913695724+911102314
1268+907810136+905056650+903741242+903246751+902151748+899798006+896472827
1258+892607016+888654148+885176433+882340071+879799299+877448767+875805217
1248+875351790+875827989+876420214+876555951+876325840+876062131+875829781
1238+875692476+876028011+876940688+877815436+878119612+878157466+878522268
1228+879364015+880585348+882196196+884130558+886151453+888172872+890381320
1218+892882372+895424040+897596501+899232660+900565165+901947919+903461257
1208+904937712+906271338+907506408+908827640+910579974+912860845+915201820
1198+917341280+919962912+923735619+928119515+932096723+935332381+937746749
1188+938944936+939002352+938993691+940014928+942276387+945339499+948611966
1178+951568535+953935716+955630485+956653588+957303826+958084499+959129852
1168+960194094+961363984+962997978+964856632+966135753+966431044+966279852
1158+966651075+967865838+969352820+970834278+973060197+976437043+979770882
1148+981700988+982733723+984469556+987251265+989850797+991265506+991644270
1138+991703776+992458093+995098466+999829394+1004902651+1007753273+1007385335
1128+1005230644+1003781665+1004378518+1006178711+1007854665+1009535472
1120+1011640363+1013256214+1013567035+1013450710+1014050550+1015149586
1111+1016019780+1016642616+1017801680+1020395761+1024344598+1027989482
1103+1029680966+1030168140+1031695664+1034853375+1038095827+1040297257
1094+1041891978+1042934792+1042388112+1040533714+1039849057+1041886602
1085+1045162877+1047357662+1047793692+1046668451+1044087659+1041081216
1077+1039549286+1040420973+1043113609+1046458947+1048936107+1049105740
1068+1047763230+1047792349+1050335510+1053528685+1055710553+1057422420
1060+1059652297+1062323729+1064662762+1065705278+1065193390+1064557712
1051+1065804654+1069245784+1072811899+1073741823+1071293782+1067500692
1043+1065175695+1065825335+1068804676+1071744446+1072477634+1071324095
1034+1070626596+1070779057+1068826403+1063220353+1057467516+1056460018
1025+1060612833+1065165989+1065754480+1062792536+1058947481+1056121572
1017+1055972545+1059552099+1064983439+1067931645+1065983098+1061053492
1008+1056504517+1053836743+1052786164+1052765856+1053210398+1053307683
1000+1052487065+1050878382+1048976499+1047163315+1045343785+1043189243
991+1041046348+1040159355+1041299455+1043416367+1043960509+1040634434
983+1033532591+1025924087+1021812561+1022354090+1025373823+1027766240
974+1027489764+1024206546+1019383410+1015134952+1012266037+1009888477
965+1006818645+1002763041+998090798+993010224+987644961+982708337+979104592
955+976636765+974100772+970790974+967165651+964188699+962261206+960857473
945+959197496+956894973+954002987+951124665+949327235+949118478+949806047
935+950544461+951310426+952213695+952690641+951967831+949888848+947222493
925+945556544+946232465+948637650+950432990+950227443+949035677+948480410
915+948979083+949942008+950283739+948837821+945842054+943577235+943705730
905+944832017+944347530+941860515+939257251+938251096+939041251+940664717
895+941878658+941917782+940900652+939453016+938090347+937120702+936892458
885+937609444+938692203+939048643+938355400+937248674+936097002+934654892
875+932870378+930874196+928414582+925321156+922314713+920804062+921991274
865+925944291+930841045+933486644+931931718+927536175+923635720+922689296
855+924768951+927747097+929056980+928148633+926868018+926979116+928207915
845+929395351+930326321+931255797+931971140+932130694+931988163+932157274
835+932795491+933452448+933488809+932338854+929882152+927214080+926469394
825+928709798+932361178+935019694+936384080+937661783+938865346+939232985
815+939498784+941228421+944361418+947085338+947765814+946118530+942896237
805+939248067+936503540+935735560+936775985+937923551+937620121+936361233
795+935930952+937211194+939319594+940536820+940213307+939820805+941140767
785+943597096+944947072+944470948+943523851+943073710+942811196+942582056
776+942848676+943462628+943264772+941481080+938777916+936258647+934164955
766+932345648+930949456+930181998+930400909+932144059+935121384+937915412
756+939466456+939784220+939108896+938270956+939363570+943659738+949236296
746+952788972+953699409+953807296+953607723+951901904+948935928+946799753
736+946332961+946105389+945075641+944168041+944352458+945318220+947053905
726+950143224+953450259+954061224+951047389+947779999+948019144+950721188
716+951209706+947308728+941670051+937925790+937492299+939446595+941585309
706+942104961+941061326+939541790+937667308+934975195+932172580+930726139
696+930568302+929695794+926633876+922327181+919011186+917839952+917557204
686+915480461+910477985+904250815+898782294+894413331+891082926+888936298
676+887823898+887245561+886038787+882066582+874073490+865994760+865347211
666+871022324+876162180+878452981+878904317+878964346+880097427+881877685
656+881131431+875670227+867240508+859543976+855576773+856677451+861111744
646+863579870+859245326+849778093+842170112+841497700+847139289+854586447
636+860325322+864004924+865258661+861903766+853464864+843881381+838728012
626+839894467+843203967+842529240+836708908+829793274+825127153+822545615
616+820993377+821392300+825154181+830995717+835343849+835490562+830819214
606+823032416+816689743+816034578+819360354+820642612
##END=
