##TITLE=<SNM>
##JCAMP-DX=4.24
##DATA TYPE=INFRARED SPECTRUM
##DATE=2/5/2025
##SAMPLING PROCEDURE=Instrument type and / or accessory
##ORIGIN=Admin
##XUNITS=1/CM
##YUNITS=ABSORBANCE
##RESOLUTION=4
##FIRSTX=4497.3318
##LASTX=599.83466
##DELTAX=-1.4281778
##MAXY=1.8638543
##MINY=0.35490566
##XFACTOR=1
##YFACTOR=1.7358496e-09
##NPOINTS=2730
##FIRSTY=0.37526014
##XYDATA=(X++(Y..Y))
4497+216182410+216663443+217790690+218397707+217916211+216918399+216271069
4487+216016972+215613198+215202367+215658970+217123994+218502110+218690400
4477+217474528+215372561+213497170+213145005+214547209+216303329+216751862
4467+215705205+214319140+213622622+213800129+214509558+215221596+215518444
4457+215572989+215901014+216348998+216170787+215387996+214983586+215446181
4447+216153154+216348895+215795307+214463271+212534897+210863282+210608841
4437+211977961+213748640+214535929+214256319+213802241+213704808+213857850
4427+214188108+214747534+215307200+215486252+215128920+214299258+213322667
4417+212885448+213474061+214724957+215879897+216694364+217259198+217239900
4407+216116911+214186528+212692128+212761816+214378715+216286349+216935481
4397+215849903+213982358+212493349+211627255+211159339+211256445+212076286
4387+212990641+213142533+212587828+212147914+212225740+212314073+211722233
4377+210577148+209833896+210097247+210715304+210615915+209859873+209444201
4367+209685146+209870964+209501819+208858593+208306944+207944736+207978472
4357+208703130+209958249+211039604+211279142+210591020+209476838+208560887
4347+208153816+208162521+208249051+208123256+207914004+208124115+208910494
4337+209681301+209798855+209388557+209041319+208996045+209008991+208836222
4327+208468605+207931567+207209176+206486768+206199930+206577693+207230173
4317+207485833+207177380+206881494+207234775+208122157+208851691+209114098
4307+209260306+209531555+209626584+209212389+208435418+207759605+207475480
4297+207405535+207156262+206709171+206508795+206840718+207413604+207747021
4287+207632643+207064289+206100574+205041676+204456463+204706989+205564309
4277+206547184+207439529+208200893+208632893+208508728+207893573+207112224
4267+206589437+206760334+207706932+208790347+209083743+208348081+207351728
4257+207086145+207717508+208490238+208758001+208734600+208905807+209225780
4247+209456408+209817620+210613082+211478574+211693269+211191135+210607553
4237+210284902+209889540+209219771+208747580+208902442+209330595+209370221
4227+209000338+208889170+209466486+210250650+210416878+209937235+209651376
4217+210100647+210865033+211237989+211095712+210774588+210393408+209742181
4207+208847467+208241291+208377216+208997985+209394222+209235292+208915181
4197+209055707+209779025+210585183+210934583+210789130+210534603+210482720
4187+210528869+210367123+210019610+209850361+209987162+210178833+210311084
4177+210529453+210750706+210570538+209852730+209132090+209201091+210257002
4167+211604215+212429378+212707958+212986915+213449286+213663415+213272105
4157+212519565+211837160+211255364+210592702+209920633+209502677+209532654
4147+210054703+210783378+211102871+210719957+210104973+209910434+210257243
4137+210758621+210939768+210599347+209902211+209152796+208636052+208683042
4127+209487363+210681980+211457680+211327816+210535737+209563781+208558294
4117+207523759+206793058+206795547+207475120+208363361+209067605+209356623
4107+209115849+208607071+208447230+208973640+209802357+210267990+210251113
4097+210233825+210436896+210425599+209900820+209269080+208977349+208859279
4087+208573008+208246407+208319958+208977228+209921800+210622421+210766810
4077+210532148+210356272+210443626+210625581+210705037+210712557+210730138
4067+210717880+210666974+210708128+210880982+210926771+210579294+210071220
4057+209991368+210452537+210828824+210607553+210031903+209604556+209482332
4047+209622395+210031028+210598059+211027741+211157519+211099472+210916247
4037+210464074+209817311+209453884+209632885+209982114+210024212+209707878
4027+209283484+209108003+209519279+210453069+211367046+211876477+212158421
4017+212535481+212964939+213062801+212478601+211239671+209848799+209002896
4007+209035860+209621502+210200517+210627624+211106494+211670040+212149528
3997+212489640+212730209+212859695+212933383+213146602+213605384+214101011
3987+214262964+214028782+213786617+213790412+213753997+213490783+213501823
3977+214229759+215161506+215409972+214872299+214151418+213681991+213539371
3967+213851549+214822509+216320172+217783325+218623819+218592263+217804494
3957+216636093+215628375+215340473+216163370+218052290+220186551+221228693
3947+220654364+219578607+219446047+220272446+220760931+219957469+218259276
3937+217025789+217712109+220703707+224459383+226432773+225664232+223791846
3927+222938732+223597358+224596029+224693238+224120421+224164956+225344808
3917+226371996+225443786+222653130+219918564+218737665+219180721+220917475
3907+224269703+229552983+235711164+240480326+242309602+241021450+236965185
3897+231513102+227380882+226827482+229599150+232518519+232667750+231603478
3887+232686618+235833096+237998913+238300448+238381141+237845683+235287165
3878+232504304+232369890+234974196+238680357+242690542+246002303+246492693
3868+244599670+243415131+243722743+243025727+239926618+236619750+235879400
3858+238922591+246143670+256422397+263038141+258723830+248196655+239276370
3848+235040468+235512968+239314793+244653391+250236677+255300523+258550889
3838+258341362+255170333+251662557+249293547+247642723+246215058+245378786
3828+245295776+245637708+247138890+251251829+256741254+259167675+257655403
3818+255897325+254593258+251197902+245941612+242032173+241779089+245416506
3808+250663440+254130956+255942307+258974579+262900362+264083390+262305655
3798+260366499+258511607+255853631+253533329+253344422+255467901+258991130
3788+263235187+267756828+271998138+276080620+281180229+287782702+294215445
3778+298761037+302582417+308282845+317316685+329591670+343720706+357720289
3768+370646416+382095963+390693408+396188635+400858048+406132280+410367976
3758+412044639+413149309+417167099+425950103+437955437+447890497+452354777
3748+454753831+459753982+467861088+474889036+479272727+485509609+497598245
3738+515633818+534742470+546992492+548952680+544970909+541193687+540992367
3728+544828512+550958742+556628748+560125948+561027924+559341509+556055724
3718+553178658+552670292+555904365+562284606+566629667+562146535+550219972
3708+538919964+533665064+535149163+540560745+545012870+545508668+543891340
3698+543376656+544955732+548028625+552202170+557571448+563272392+566254153
3688+563901351+558140626+553317519+552419629+555931629+561973612+568606508
3678+575495459+580601472+579730262+575339189+573430645+572502675+566196946
3668+555290549+546753160+543615233+544021960+545157465+546139619+547671103
3658+549552727+550266190+550034687+551405507+555660535+560859568+562508967
3648+557788667+549341071+541297455+535595207+532121733+529684702+527309718
3638+525387336+525287105+527772140+532683906+540019518+548923562+554366459
3628+550611625+541223458+533897632+532037847+535522583+542100367+548103515
3618+551470302+553700931+556322973+558273546+558354479+557831451+558293221
3608+558770031+557793062+556528551+556963435+558866760+560778188+562974961
3598+566862990+571925841+575617872+576406809+575765866+576681028+580783597
3588+586156309+588188743+585372866+581382030+579847215+580825489+582337024
3578+583342493+583945939+583954386+583299296+583500445+586873687+593611931
3568+599779486+600256296+595522054+590741457+588641791+587974134+587135064
3558+586595142+587562977+589953207+592184248+592530095+591097193+589834537
3548+589786670+589749861+588317852+585826120+583183030+580734014+578962064
3538+578570480+579439286+580480604+580761141+580198968+579255856+578447621
3528+578076433+578099920+578151357+577615899+575896657+573069758+570150217
3518+568410373+568567054+570334506+572505663+573697687+573248244+571640908
3508+570089508+569531284+569811512+569764573+568591194+566909483+565756054
3498+565156419+564348596+563033266+561793340+561346988+561767931+562476312
3488+562913153+563094489+563318129+563563882+563280461+561709660+558658984
3478+554941612+551879226+550310486+550177668+550888591+551730545+552151076
3468+551919710+551125382+550061093+548898324+547634912+546368924+545165225
3458+543723327+541761010+539706017+538453490+538475981+539596858+541243476
3448+542438042+542229167+540489083+537861787+534985202+532210770+530032986
3438+529054713+529222966+529605932+529307024+528390420+527554372+527083400
3428+526413579+524894422+523065197+522590001+524252346+526738308+528083753
3418+527397381+524916226+521758589+519674031+519619537+520660855+521026858
3408+519945983+518236974+517448689+518268771+519666992+520260720+520111971
3398+519851658+519012142+516984481+514508339+512730758+511962698+511979970
3388+512509522+513274526+514091174+514668764+514401413+513113140+511637660
3378+510937416+511162430+511849488+512299858+511845848+510659523+509912306
3368+510250015+510658459+509659617+507282538+505197019+505071791+507193021
3358+510370230+512957557+514134027+514237348+514078469+514256371+514793684
3348+515033599+514221141+512473331+510814523+510131757+510489519+511383700
3338+512104066+511832834+510097832+507474863+505403971+505112824+506642901
3328+508792253+510090930+509829759+508167758+505866119+504221149+504266852
3318+505488819+506212687+505677366+504799907+504684601+505378699+506246475
3308+506850917+507260528+507610873+507482314+506144012+503699666+501463543
3298+500753547+501633548+502990941+503720818+503765594+503840724+504389815
3288+505241040+506040690+506575256+506809128+506939645+507255137+507703722
3278+507839801+507408008+506712640+506183603+505852624+505676679+506070186
3268+507353720+508771033+509082473+508223694+507271791+506740007+505977887
3258+504417594+502608388+501562675+501372858+501070242+500117446+499306670
3248+499438698+499963237+499786193+498650344+497075595+495717102+495084881
3238+495168184+495306632+494887647+493941032+492881310+492136118+492079221
3228+492760270+493591580+493716293+492820704+491421762+490279390+489712410
3218+489539864+489389466+488939989+488107271+487026878+485772840+484357656
3208+483033673+482170601+481821252+481705397+481632156+481686890+481894631
3198+481907130+481326449+480375817+479736557+479558414+479235574+478320206
3188+476943858+475375941+473873472+472814402+472385356+472224759+471802237
3178+471068034+470308524+469449057+468134036+466539954+465354969+464732946
3168+463933914+462291416+460066041+458256492+457716501+458243100+458665382
3158+458111244+456839900+455573569+454601820+453828781+453161261+452516781
3148+451710709+450621114+449434858+448536521+448071249+447737523+447169925
3138+446493821+446258266+446606757+446780504+445958706+444450708+443357232
3128+443080919+442860679+441934941+440614529+439824870+439932587+440371729
3118+440270468+439270939+437810498+436594369+435781705+434959082+433970988
3108+433234656+433060153+433249421+433447891+433387492+432911952+432185681
3098+431572929+431122044+430643552+430187688+429808568+429183489+428176578
3088+427363605+427328409+427840277+428177951+427895698+427028643+425892004
3078+424858035+424138734+423782792+423848137+424276222+424647959+424468031
3068+423669376+422493181+421114326+419747799+418777423+418408535+418388448
3058+418223697+417615512+416708145+415875702+415200285+414429924+413596382
3048+413165207+413274812+413358905+412857338+411898567+411044698+410631721
3038+410494818+410226643+409641635+408903003+408141535+407182834+405916778
3028+404727363+404164813+404216044+404262228+403868721+403237564+402728065
3018+402362955+402011133+401731833+401657114+401635997+401245511+400211508
3008+398738363+397372591+396514120+396115222+395934710+395912219+396022064
2998+395930040+395278109+394284761+393583556+393423303+393390477+392964486
2988+392070545+391029640+390220959+389873807+389922669+389975721+389671800
2978+389089025+388529290+388036273+387510704+387075580+386865434+386653641
2968+386066951+385050254+383942940+383180099+382890531+382690413+382028765
2958+380788153+379352057+378174111+377527846+377551505+378174455+378916899
2948+379049579+378245911+376999152+376113384+375837036+375729010+375281902
2938+374432531+373525508+372977345+372926456+373097182+373057729+372646984
2928+372064106+371518243+370936979+370145947+369219557+368417846+367838951
2918+367368940+366887495+366351350+365791409+365335477+365075680+364868281
2908+364479856+363953532+363590242+363534787+363594877+363502338+363211225
2898+362861567+362511222+362030600+361266421+360224004+359121978+358343171
2888+358196859+358562072+358885222+358728437+358216088+357741544+357375679
2878+356836134+355974230+355021434+354326994+354012978+353893449+353607899
2868+352870022+351738637+350644818+350061253+350079005+350297288+350236202
2858+349873427+349569094+349492075+349426491+349143859+348665745+348131935
2848+347641836+347227246+346855577+346466019+346013966+345496810+344996617
2838+344602903+344203524+343575561+342808806+342334675+342392190+342705416
2828+342749505+342189667+341097256+339862687+338903780+338437992+338440465
2818+338654765+338720933+338492726+338139634+337806115+337372330+336696740
2808+335880230+335173909+334756949+334616406+334531867+334222109+333610044
2798+332902693+332350684+331960370+331510309+330854052+330114904+329519905
2788+329139755+328883288+328657314+328419939+328118078+327667022+327032500
2778+326318384+325698524+325234076+324838577+324424502+323974750+323480188
2768+322919286+322300113+321662913+321063621+320551409+320125110+319753167
2758+319435408+319183646+318985519+318816441+318580097+318099304+317369530
2748+316674471+316192202+315734278+315139484+314563989+314121516+313672485
2738+313185546+312856525+312693216+312386445+311759787+311045224+310550559
2728+310258553+309927437+309475831+309044416+308705642+308341597+307829488
2718+307193318+306582558+306141219+305822361+305403582+304830352+304372840
2708+304256505+304336683+304289469+303955091+303432990+302941106+302597045
2698+302329831+301997204+301519742+300932605+300423553+300244964+300437906
2688+300728710+300794775+300505654+299888747+299072821+298300091+297801648
2678+297590851+297466549+297248884+296941907+296619273+296247810+295750673
2668+295190011+294735486+294467345+294330647+294239310+294097015+293767101
2658+293197786+292579231+292205606+292154409+292230672+292231874+292109014
2648+291835620+291329623+290626255+289958597+289519765+289271574+289094667
2638+288964322+288870890+288739206+288513884+288188365+287757739+287276087
2628+286863351+286536047+286172138+285723726+285308088+285048342+284957588
2618+284975358+285005112+284935115+284718737+284418714+284127223+283849365
2608+283502350+283052890+282608323+282305879+282154399+282047799+281870824
2598+281547571+281087621+280603463+280179172+279784188+279438342+279309010
2588+279479272+279768857+279932131+279900816+279729557+279431371+278983817
2578+278456479+278029802+277814970+277716284+277585373+277435988+277334847
2568+277161288+276712566+276048308+275522087+275409477+275624395+275844756
2558+275830163+275599123+275368118+275296988+275249671+274937114+274361189
2548+273895934+273820186+273993058+274091349+273977365+273743098+273516643
2538+273291629+272941508+272428180+271959972+271835910+272120345+272554250
2528+272830168+272893349+272898620+272930314+272888422+272658000+272303277
2518+272031565+271962169+271989090+271942339+271813351+271706304+271653596
2508+271608837+271554841+271523302+271556266+271667502+271793984+271817643
2498+271683916+271454610+271217373+270991381+270732734+270390544+269967232
2488+269576918+269417301+269575339+269862177+269978907+269857181+269686403
2478+269617952+269630708+269673132+269741292+269793176+269725909+269476189
2468+269085464+268671869+268379486+268307240+268407711+268504199+268486962
2458+268423678+268401805+268383469+268303085+268164293+267973205+267723263
2448+267473475+267291280+267140934+266970620+266856156+266913860+267110459
2438+267272515+267271502+267129671+266946636+266782108+266649874+266590642
2428+266678031+266920694+267208356+267405384+267482059+267525994+267636131
2418+267820335+267988897+268045400+267988210+267924652+267977034+268166370
2408+268391538+268533438+268558178+268494465+268366798+268233792+268219542
2398+268381031+268607710+268779757+268928833+269106461+269224307+269173144
2388+268960098+268576411+267849419+266550124+264549298+261799692+258300518
2378+254196368+249833950+245573995+241527996+237580168+233669665+229891996
2368+226329795+223079653+220503297+219098037+219023095+220088586+222295746
2358+226023248+231508312+238581259+247056033+256475053+265233369+271088127
2348+272711979+270582765+266886219+264020106+262572371+261588963+260356507
2338+258915553+257484488+256078490+254622719+253219777+252170459+251680275
2328+251636512+251716432+251653440+251470627+251540624+252284545+253710923
2318+255359704+256738593+257705570+258432236+259154095+260017974+261049402
2308+262149625+263137497+263858360+264292591+264560543+264799240+265036460
2298+265231394+265414069+265683824+266044745+266344511+266435454+266340133
2288+266212793+266176721+266226923+266246323+266095702+265735949+265289150
2278+264943646+264790501+264763152+264706289+264496332+264149009+263807970
2268+263582063+263442413+263331040+263275808+263313613+263387473+263409999
2258+263371111+263329357+263329666+263355247+263360381+263345908+263355814
2248+263383833+263370734+263335933+263390770+263545923+263632454+263515380
2238+263277370+263081492+262956349+262847757+262805831+262954718+263282504
2228+263593446+263703429+263614324+263482794+263466037+263600829+263790732
2218+263897178+263856282+263717542+263570526+263449263+263340568+263265318
2208+263278572+263380091+263487412+263504478+263385688+263177345+263023565
2198+263040837+263162700+263211116+263127127+263029145+263050743+263193003
2188+263327674+263331194+263221434+263105580+263009435+262890387+262788147
2178+262795290+262922750+263135934+263417776+263683170+263790269+263721559
2168+263583437+263412471+263182650+262968350+262895847+262976248+263149171
2158+263410342+263758919+264101057+264324542+264409991+264397063+264317091
2148+264224998+264215624+264324491+264463712+264522120+264477739+264369267
2138+264231711+264115067+264084420+264152031+264284779+264492675+264804047
2128+265147199+265389621+265514592+265635100+265817569+266010871+266166866
2118+266317230+266487664+266614232+266618370+266546003+266556923+266747547
2108+267033595+267253046+267359835+267469080+267698145+268005723+268255476
2098+268421704+268614388+268891835+269191961+269465562+269718286+269896943
2088+269895398+269720483+269538958+269511694+269633077+269777672+269887174
2078+270038208+270287223+270550024+270727000+270840159+270951378+271081620
2068+271289687+271640736+272014499+272158837+272023101+271847122+271873270
2058+272106404+272359831+272456646+272398272+272355865+272482639+272766850
2048+273081742+273329298+273525656+273752798+274013196+274202688+274285269
2038+274375697+274563677+274782613+274914211+274925182+274877041+274866448
2028+274958627+275152170+275391725+275606540+275798109+276115507+276693183
2018+277344307+277634595+277394851+276945941+276709390+276811870+277110589
2008+277407779+277596395+277710876+277858321+278073600+278274628+278377074
1998+278457595+278820079+279770505+281161515+282309399+282638300+282269344
1988+281714897+281309338+281148226+281210308+281371214+281526831+281715996
1978+281981579+282238938+282383104+282389525+282339564+282492022+283126647
1968+284078344+284680932+284504197+283884303+283424387+283326852+283459016
1958+283722350+284065587+284341283+284400034+284281467+284216054+284428225
1948+285015808+286087411+287727487+289436016+290036612+288983654+287264121
1938+286145304+285828008+285815389+285828592+285915329+286105009+286325146
1928+286634990+287416442+288944819+290693247+291820202+292459050+293272470
1918+293795739+292895617+290925094+289584766+289803117+290947585+291766670
1908+291648103+290973715+290434789+290276288+290304994+290386923+290693110
1898+291457908+292533013+293387363+293903249+294737203+296154515+297131278
1888+296672461+295359329+294383115+294074421+294141997+294384901+294693010
1878+294928085+295058395+295281177+296215327+298813504+303308311+307877286
1868+309406195+307030971+303215016+300519835+299567623+299683546+300070976
1858+300328541+300447074+300582673+300825576+301299364+302305588+304139311
1848+307007003+310912064+314698523+315790042+313246701+309592064+307439449
1838+307109947+307507712+308000523+309346516+312532139+316721891+319343796
1828+319410273+318564645+317731962+316162706+313922016+312396849+312251190
1818+312778476+313181391+313647007+314914265+317037452+318920518+319406805
1808+318647020+317884626+318361436+320619329+324053211+326956477+327857011
1798+327179498+326997785+329180651+333565474+337001142+336044054+331936299
1788+328758403+328360192+329786088+331589594+333337954+334793690+335395729
1778+335493625+336787116+340800409+347021839+352085720+352609950+349369765
1768+345170913+341792967+340589233+342269777+345340300+347110911+347269241
1758+347382005+347692759+348059551+350048170+355131452+361686058+365553554
1748+364954331+362259631+360309367+360201479+361632080+363395171+364205603
1738+364817050+367963596+374423672+379558391+378121232+372585451+367294154
1728+363528263+361696566+361921373+363422847+365965363+371100563+380143742
1718+390554753+395491482+391944939+384733766+378863676+376214954+377117067
1708+381177265+386708890+391301867+395026381+400640142+408712601+414794382
1698+415547711+412564473+406917783+400214770+396109247+396255662+399497701
1688+404926383+413632986+424960739+431455976+427604516+419855206+415136108
1678+415292481+419259040+424039568+427199884+429821445+433343574+435339061
1668+432871125+428774393+427732663+430253581+432909961+432956179+432091905
1658+433972842+441144939+454289452+468649922+472304216+466574395+464185710
1648+467565717+470160049+466032447+458906602+454766365+455235689+460098284
1638+468888155+478656335+482319557+477341554+470884981+468744384+471071261
1628+475202503+479154365+483013723+486311285+487213880+486493480+487754385
1618+492345646+496599094+496141650+492959839+491383579+492492301+494772067
1608+496504666+497435005+498395045+499787875+501112442+501936473+502663122
1598+503940509+505817943+507863391+509770939+511507658+513046354+514276527
1588+515172563+515919849+516823130+518035104+519531633+521700043+525624058
1578+531734956+537418319+538414826+536192816+536297613+540266507+544426180
1568+544993813+543454705+543103399+545536756+552456198+566161751+583632575
1558+590466895+582740283+573314104+567963368+566119069+566418183+567864167
1548+570698655+576636595+586816824+600176083+614395427+625437388+626412847
1538+618719061+613084285+614317000+619490554+623048051+624175625+627063129
1528+633989267+643207361+652315987+661553379+671317095+679111833+683259316
1518+685492143+686603165+686141945+685863399+688837435+696613150+708941324
1508+722981425+729845619+723099409+712262098+706787336+707792461+712865201
1498+718122196+719789279+717949891+716995103+720531105+727950260+734308938
1488+734776476+730530925+726179684+724381913+725094895+727271890+730609009
1478+735688067+742655753+750359085+756078262+756270139+750993504+745543807
1468+744294267+747221192+750838985+751778595+751365996+753879978+761429066
1458+770714461+772914187+765408433+756327620+751020424+749469608+749770472
1448+749741286+748304950+746323542+745138969+745001207+745791243+748068846
1438+751823577+754497778+753336485+750075938+748097621+747981079+748145899
1428+747715101+747431817+747793803+748458713+749779743+752658595+755782410
1418+755484292+751211272+746617333+744253200+743844241+743926376+743703526
1408+743584512+743887849+743791224+742827166+742473490+744307659+747844073
1398+751438517+754058602+754936061+753504326+751234690+750833285+752966190
1388+755353467+755342479+753526302+753086852+755969755+761631932+768377455
1378+774929727+780938368+786080263+789205795+789770852+789490315+790373063
1368+792357973+794552685+797285260+800955589+804082838+804655037+802843462
1358+800545738+799123480+798493388+797823396+796755501+795711574+795195276
1348+795330978+795920758+796626942+797413064+798736085+800634534+802026574
1338+801945744+801131534+801196295+802594516+804315715+805432643+806266494
1328+807639580+809683688+812002221+814444850+817184223+820306664+823565563
1318+826506085+828955375+831237029+833665648+836113084+838278267+840114359
1308+841900112+844048675+846714497+849523918+851864908+853344303+853931542
1298+854043070+854428061+855444656+856492978+856559043+855252915+853060813
1288+850715565+848534176+846369543+843932545+840991062+837512473+833887331
1278+830810421+828826403+828195006+828891782+830359090+831704431+832518297
1268+832965508+833007400+832536290+832229038+833036243+834862789+836761101
1258+838236718+839488044+840680308+841773681+842788902+843725147+844491696
1248+845313666+846829596+849182673+851366260+852461830+853229341+855031714
1238+857533403+859203233+859752495+860116197+860529345+860657698+861038844
1228+862568577+865110304+867961823+871020122+874342820+877234170+878799134
1218+879119296+879320994+880442455+882546654+885013388+887208993+888742915
1208+889684585+890708528+892558767+895178714+897801065+900116714+902696006
1198+905906832+909122053+911367516+912291262+912502781+913395143+916035143
1188+919879770+923326013+925578619+927145711+928766233+930882724+933546074
1178+936034440+937452714+937791350+937844573+938646284+941135474+945436171
1168+950150771+953243477+953943411+953285094+952881491+953723377+955948718
1158+959003584+962060578+964676061+966764190+967837029+967016296+964415509
1148+961890333+961537687+963983544+968469869+973708184+978456709+982028903
1138+984045198+983686303+980731359+977325908+976483267+978453619+980547311
1128+981043349+981219981+983070151+986665832+990696499+994514823+997979884
1118+1000146508+1000067394+998586558+997618928+998009620+999303043+1001067576
1108+1003201167+1005374728+1007184586+1008563715+1009711410+1010696620
1100+1011459049+1012080488+1012295372+1011461246+1009938587+1009422426
1091+1011058056+1014074601+1017050971+1019229133+1020089080+1019034027
1083+1016204896+1013175303+1012191947+1014049535+1017344831+1020678654
1074+1023951562+1026778014+1027886015+1026804248+1024688649+1023071768
1065+1022798785+1023711955+1024550407+1024222347+1023477705+1024000046
1057+1026119972+1028671656+1030695711+1032207658+1033320741+1033816505
1048+1034196002+1036570917+1043924763+1056965576+1070351549+1073741823
1040+1064056465+1050655452+1042037508+1040087484+1041725312+1041543735
1031+1037866126+1035056842+1037044019+1042234948+1045028437+1042446879
1023+1037828629+1036145820+1038220351+1041014527+1042497561+1043943992
1014+1046765294+1049049764+1047727841+1042990921+1037782068+1034534295
1005+1033214363+1032046272+1030151325+1028588216+1027977284+1026908428
997+1024229695+1021056228+1018937745+1018245159+1019008411+1021169473
988+1023659556+1024747298+1023835433+1021637149+1018746417+1015353533
980+1011855921+1009105423+1007708095+1007160000+1006232546+1004259310
971+1001550154+998550641+995409863+992507318+990695675+990401059+990680910
961+989946775+987876158+985726428+984308772+982706175+979637849+975229882
951+970689853+966934710+964262158+962746846+962131313+961460634+959689096
941+956859553+953800567+950889507+948019721+945338584+943212478+941776211
931+940874235+940140581+939251104+938467249+938444792+938909858+938544989
921+936952212+935512855+935528581+936591943+937524274+937903290+937955346
911+937765254+937320515+936846658+936537484+936018714+934393385+931364410
901+928302746+927155875+928079209+929033515+928017402+925210659+922679577
891+922290190+923946972+925775853+925984831+924453861+922678272+922290739
881+923574205+925101603+925008892+922912591+920291545+919062333+919793308
871+921115643+921348245+920931938+921915500+924431542+925668926+923314270
861+918581059+914784161+914323147+917492493+921885764+923179324+919265404
851+912739710+907748418+906306795+908189380+912151990+916204495+918041343
841+916769964+914074063+912657162+913572118+915621720+917028732+917088341
831+916478302+916598071+918442130+921652132+924793459+926619936+926700217
821+925177489+922899405+921418500+921574735+922405083+922373767+921727537
811+922558091+925693581+929031593+930372813+930608574+932364042+936245204
801+939743572+939886347+936386949+931411521+926503807+921882055+918676860
791+918724521+921792709+925237098+926761819+926016765+924177239+923567749
781+926044372+930398017+933073660+932609005+931295254+931614730+933387435
771+934611909+933556719+930360932+927348852+926924990+928970678+931241001
761+932047382+931989283+933102572+936088694+938893582+938599791+934908172
751+930889386+930069888+933118161+937088463+938318155+936515989+934757431
741+934935642+935588054+935176622+934974512+936867948+940138590+942133527
731+941490936+939311950+937644180+937498108+938452964+939914023+942244437
721+945999099+949982449+951309248+948535400+943387530+938716058+935318161
711+931929467+928894861+928545512+930632748+931496884+929579550+927683298
701+927626023+927056090+923649472+919317734+917108120+916478852+915054122
691+912979866+912043003+911956472+910606118+907757621+905542580+905444925
681+906713007+907796147+908032732+906393325+901415288+893476126+884647282
671+876226915+868654615+865249439+870060459+878779355+884210372+884619606
661+882004740+878750787+876129878+874457369+873252743+872394238+872658156
651+873133592+871018886+866132804+862703043+863723964+866873326+868156036
641+866515255+862150004+854579421+846670957+844738995+851165111+860378947
631+864840274+863225178+859411524+856992038+856905645+858067693+859503411
621+860977311+861056150+856251586+845369430+833180460+825172967+821375520
611+819608859+821136257+828744062+839465037+844508522+839353441+828800513
601+820690214+819026908
##END=
