##TITLE=<SNM>
##JCAMP-DX=4.24
##DATA TYPE=INFRARED SPECTRUM
##DATE=3/5/2025
##SAMPLING PROCEDURE=Instrument type and / or accessory
##ORIGIN=Admin
##XUNITS=1/CM
##YUNITS=ABSORBANCE
##RESOLUTION=4
##FIRSTX=4497.3318
##LASTX=599.83466
##DELTAX=-1.4281778
##MAXY=1.7038573
##MINY=0.18093285
##XFACTOR=1
##YFACTOR=1.5868408e-09
##NPOINTS=2730
##FIRSTY=0.20201325
##XYDATA=(X++(Y..Y))
4497+127305309+127156883+127518979+128011396+127994606+127284744+126265381
4487+125330617+124556994+124071442+124171187+124890956+125823419+126378358
4477+126247558+125848191+125996457+126888429+127882709+128324784+127993254
4467+126955251+125659190+124829552+124782553+125196991+125654616+125877828
4457+125554927+124679577+123909494+123821439+124110694+124259223+124501431
4447+125281186+126301328+126856172+126566871+125472535+124050341+123121719
4437+123122996+123636288+123957601+123772121+123186466+122471571+121820502
4427+121320404+121108273+121202544+121196600+120559673+119259865+117865241
4417+117182592+117692250+118946909+119838458+119786576+119134061+118347723
4407+117620141+117166723+117181297+117584739+118185775+118807977+119105927
4397+118714223+117763636+116889911+116584129+116765168+117043905+117191532
4387+117299316+117618535+118208697+118646846+118295765+117149209+116069072
4377+115756088+115855392+115590994+114965477+114689736+115117077+115860069
4367+116336277+116270478+115790532+115271672+114970745+114802421+114628632
4357+114602123+114940499+115491643+115812919+115699895+115471670+115586985
4347+116051249+116401212+116291635+115873149+115504705+115345180+115355003
4337+115417966+115326737+114924319+114373475+114020797+114042123+114540803
4327+115653122+116988201+117492759+116701670+115598582+115448757+116296631
4317+117235470+117681770+117768801+117766040+117645664+117328689+117089242
4307+117338784+117996792+118416076+118098641+117340408+116957907+117319900
4297+117880256+117946281+117637616+117623850+118178817+118965502+119498871
4287+119501416+119102246+118791441+118845323+118892923+118412357+117505239
4277+116859007+117012062+117831445+118748207+119418122+119884359+120101823
4267+119846675+119283876+119049969+119501819+120304826+120944353+121289180
4257+121493752+121621481+121613264+121572669+121801223+122441080+123221295
4247+123646739+123495515+123141439+123196420+123743865+124218693+124218308
4237+123971997+123792789+123623780+123364631+123132077+123011916+122952221
4227+122974646+123203585+123639236+124085790+124392755+124640663+124961018
4217+125258236+125330355+125167637+124926199+124779266+124880110+125202766
4207+125506773+125770260+126297703+127023219+127309750+126884907+126309037
4197+126153625+126361267+126640352+126847430+126807633+126338261+125593691
4187+124990251+124821908+125198822+126065280+127026337+127538586+127473003
4177+127209066+127225011+127817671+128954893+130241592+131267697+131890763
4167+132045424+131743577+131295267+130898502+130243977+129189551+128298265
4157+128049371+128164592+128245641+128429760+128963466+129610056+129881722
4147+129639053+129179973+128856997+128854227+129248185+130004793+130915188
4137+131683657+132068233+132010304+131742863+131618656+131730299+131858695
4127+131775091+131425522+130922447+130486993+130327637+130540528+131110256
4117+131922878+132789514+133498146+133850195+133771118+133473440+133304525
4107+133335588+133344303+133266963+133362407+133815375+134428328+134891653
4097+135199228+135539125+135843939+135772478+135194411+134467946+134151769
4087+134489788+135171075+135689569+135929993+136094016+136153946+135957902
4077+135773417+136023776+136571841+136876833+136705082+136192494+135500878
4067+134888883+134756083+135171451+135695326+135985247+136150453+136252499
4057+136006272+135329877+134747256+134867735+135687485+136666515+137392858
4047+137912347+138382161+138712226+138743853+138535967+138252178+137947561
4037+137604631+137269054+137134723+137501270+138464149+139606508+140267718
4027+140208511+139842481+139778588+140225038+140863759+141274882+141393596
4017+141459132+141561150+141429947+140757956+139641093+138635253+138363981
4007+139015557+140209601+141417448+142423730+143189165+143442331+142906718
3997+141945539+141399944+141606685+142076743+142307288+142372955+142542068
3987+142811095+143003722+142975334+142638499+142069371+141640378+141837051
3977+142822448+144195944+145264550+145651211+145552790+145319390+145053086
3967+144810474+144808446+145098817+145373150+145392579+145297135+145245243
3957+145072458+144579056+144010792+144076291+145343965+147437689+149033879
3947+149251898+148776412+148774862+149220177+149143598+148221614+147180438
3937+146814933+147449737+149022179+150942161+152078604+151772353+150824593
3927+150619712+151437940+152192876+151970858+151313235+151349106+152200022
3917+152766774+152032825+150241868+148467043+147492154+147517208+148721525
3907+151641647+156494382+162102457+166230578+167566727+166314040+163040602
3897+158827742+155725548+155402619+157426329+159149891+158596004+157475103
3887+158349523+160633508+161903999+162158518+162909717+163121378+161128385
3878+158718456+158639238+161001483+164419327+167855972+169775137+168755240
3868+166702993+166697640+168283595+168413014+166158647+163687135+163032225
3858+165137359+170727837+178927078+183653051+179241864+170672809+164133050
3848+161324383+162006318+165117677+169120660+173155590+177331244+180948148
3838+181940025+179827247+176715155+174050237+171731226+169880480+169177923
3828+169570576+170558039+172938952+177943352+183651022+185311237+182626430
3818+179802681+177861786+174869235+171121992+168987597+169940992+173740127
3808+178103666+180502702+181889917+184650355+187613063+187612481+185461578
3798+183807317+182320751+179978058+177873168+177403382+178361697+179955990
3788+182054344+184729460+187621383+190668436+194467083+198751479+201722771
3778+202537900+202940919+205031386+209586659+216300367+223830087+230376794
3768+235401516+239504395+243223767+247791849+255146456+265500637+276092116
3758+284221904+291130859+300444953+314488157+332117803+348072266+358254527
3748+365318668+373176377+381894103+388887890+394096890+400653495+410942770
3738+425463122+442176033+456450881+464854515+468571258+471001095+474389886
3728+479267402+484731710+489162954+491797616+492991406+493344412+493930001
3718+496297824+501564518+510110135+521249096+532302642+540255007+545447742
3708+550134858+555708395+562691515+570159032+575842213+579152124+581967270
3698+585337355+588924998+593129106+599425371+608525137+618095178+622927620
3688+620649683+615186352+611462923+611316019+613717873+616791520+620907470
3678+627976306+635566237+637183500+633916071+632378740+632808598+631030496
3668+627392257+625488135+625681842+625644806+624253854+623716532+627215792
3658+634574004+641369240+644641326+647263743+653067271+661314948+666016863
3648+663048652+656878294+653931494+656134946+661274231+666032563+669207665
3638+671672397+673778714+675398531+678233623+684557232+692809191+696556359
3628+692751496+687776131+687707843+693059503+700753743+705899789+705372647
3618+701926048+700538965+702280782+705548211+709853848+715636943+721082807
3608+722264578+718092360+712425481+709896894+712173216+717343677+721711893
3598+723033168+721921713+720605021+721452340+725721543+732566285+738927982
3588+740852876+737193227+731287756+726694094+724353466+723727686+724215764
3578+725301076+726393674+727354807+728681716+730401672+731112567+729062893
3568+724828473+721259047+719473959+718041125+716624518+717253754+721582605
3558+728432681+734445128+736293621+733155029+728088765+725964268+729229292
3548+736001540+741620865+742430097+738707344+733314893+728074867+723040755
3538+718878529+717446897+719506337+723501038+726836679+727886757+726930959
3528+725475889+725084119+726822030+730768050+735426468+738052116+736894159
3518+733405642+730510301+729269483+728935934+728604263+727083310+723733996
3508+720665871+720990180+724514306+727799238+729007978+729862885+731947792
3498+734522130+736451456+737241531+735906133+731820683+726432063+722257892
3488+720888087+722832813+727788270+733550405+736396165+735110649+732924475
3478+733166674+735349542+736984383+737182559+736729563+735821018+733994010
3468+732080010+731777412+733221814+734138398+732176018+727854679+723818360
3458+721699047+721772067+724348508+729479454+735899147+741302792+743383642
3448+740846115+734971670+729793471+728397147+729597999+729940187+728057739
3438+725431265+723956888+724267374+725618398+726782965+727242872+727144535
3428+726185507+724148829+722328583+722391537+724030735+725347277+725695325
3418+726515225+728926093+732034485+734005955+734316817+734293528+735313032
3408+736795372+736628522+734296233+732260081+732683704+734506053+735243843
3398+734406514+733539362+733666546+734080703+733473403+731829097+730544783
3388+730864734+732529024+734082131+734308403+733363272+732652001+732965417
3378+733402412+733183576+733154353+734322000+736380689+738270124+738951571
3368+737936350+736231043+735919355+738080437+741440643+742942666+740165870
3358+734313887+729604535+728601033+729686795+730107788+729883694+730878106
3348+733289200+735160305+734999616+733424122+731912860+731205646+731326670
3338+732173313+733715227+735699092+737457362+738367184+738347352+738020188
3328+738082841+738193649+737357823+735725310+735134989+737299076+741622743
3318+745471404+746903110+746100414+743911310+741072462+738859169+738229182
3308+738445839+737964146+736471889+735291246+735858129+738294540+741239462
3298+742767102+741924214+739692516+738259908+738345999+737911033+734913674
3288+730737475+729036450+731383088+735524580+737983453+737802555+736929618
3278+737143044+738078409+738667078+738885012+738931513+738416315+737699861
3268+738109961+739534230+739898805+738259983+736087256+734831038+734855904
3258+736261618+738460338+739519130+737751546+734025037+731238324+731295794
3248+732961886+733644310+733233759+733752488+735691204+737710453+739336355
3238+741071561+742312829+741777798+739846444+738552665+739145465+740627355
3228+740898776+739158161+736830079+735692331+735729592+735697139+735142201
3218+734822324+734882648+733995964+731551966+729205854+728908063+730774736
3208+733593226+736066747+736977997+735705102+732981118+730269304+728496536
3198+727354506+726151701+725230009+725524419+727093827+729080698+730631550
3188+730913264+729075815+725413912+721718804+719824636+720237290+721851397
3178+722453514+720296488+716065448+712590303+712198533+714660711+717508348
3168+718509672+717999281+718285653+720598410+723066222+722584905+718753298
3158+714144536+710630326+707857061+705515757+704556653+705256130+706147547
3148+705984754+705381586+705419148+705898512+706097214+706140260+706568390
3138+707351404+707967042+707796511+706386816+704036873+701793305+700201885
3128+698618729+696553354+695207589+696218227+699181330+702030245+703503194
3118+703718499+702796806+700515601+697202047+693857316+691341049+689821222
3108+688870081+687977763+687099868+686579411+686575504+686844898+687096787
3098+687436121+688174662+689220083+689973272+689761123+688234761+685674621
3088+683157077+681866828+681899132+682234934+682077175+681689687+681675564
3078+681960282+681955399+681438849+680708722+680123884+680074378+680729606
3068+681247884+680384413+678512256+677474498+677931701+678604734+678125745
3058+676101763+672843124+669481040+667670409+668001329+669321327+670216125
3048+670280130+669444004+667372995+664365269+661741274+660627341+660929413
3038+661571946+661316225+659762292+658041885+657788943+659023601+659921404
3028+659086329+657271492+656177391+656161765+655988755+654709925+652776017
3018+650925871+649195848+647633351+646726834+646380890+645806344+644912222
3008+644462757+644537205+644031097+642343293+640444768+639480556+639271937
2998+638957921+638500192+638580649+639365316+640213237+640403751+639685268
2988+638217502+636230030+633848535+631275925+629124271+628259259+628904609
2978+630039014+630193994+629019361+627524587+626623179+626149937+625496962
2968+624412552+622986555+621554322+620658773+620580269+620904427+620765674
2958+619641261+618020505+616999950+616947101+616957843+615929588+613738194
2948+611246755+609665965+609774970+611152550+612256116+611740881+609699433
2938+607399710+605946067+605323179+604646953+603258818+601462349+600077932
2928+599482915+599353778+599202666+598725180+597609369+595575921+592841796
2918+590224976+588643998+588534844+589451240+590243606+590085659+589157431
2908+588038952+586890725+585574107+584141161+582831192+581804702+581048620
2898+580344336+579339294+577929261+576494248+575409801+574494081+573408506
2888+572298028+571499276+571055596+570933595+571133048+571237057+570502348
2878+568734162+566676788+565430674+565553313+566441238+566708753+565646655
2868+563856007+562055706+560235009+558446540+557406979+557599145+558303317
2858+558160168+556627871+554429340+552546515+551237147+550108001+548789506
2848+547418574+546518405+546372064+546650773+546825736+546674850+546095346
2838+544804984+542721880+540458968+538964758+538551353+538502748+537841434
2828+536351206+534656829+533472618+532941005+532555808+531694891+530287787
2818+528825580+527767051+527198064+526849340+526159630+524735698+522991477
2808+521824018+521473040+521220136+520450982+519459388+518805023+518383091
2798+517636963+516379580+514889127+513393302+511933950+510604224+509535702
2788+508707501+507953598+507162020+506438316+505972624+505633516+504879087
2778+503329737+501273339+499356371+497949831+497038919+496476618+496054310
2768+495484911+494622528+493673341+492931345+492328515+491510944+490370116
2758+489152061+487928710+486405690+484538980+482879611+481884748+481238685
2748+480296822+478932689+477531294+476377019+475452134+474676821+473976217
2738+473182461+472142749+470888259+469534343+468124047+466766149+465763436
2728+465308562+465152380+464814060+464060382+463031338+461941181+460767862
2718+459341302+457776100+456498697+455627488+454735958+453512119+452184871
2708+451043292+449985175+448780117+447491070+446476600+446029351+446019097
2698+445995546+445657113+444989602+444001012+442708172+441364848+440325700
2688+439656310+439099494+438405652+437513070+436409391+435039022+433477014
2678+432042039+431018554+430330497+429700172+429077697+428662902+428514007
2668+428404025+428113635+427624092+426950383+426011788+424779572+423399513
2658+422081994+420920695+419833242+418694142+417558310+416672752+416184899
2648+415923581+415567645+414977249+414286862+413708898+413309165+412963146
2638+412473001+411715229+410729944+409708451+408877695+408333462+407934443
2628+407383073+406509723+405493112+404706567+404332676+404177884+403866872
2618+403210780+402371348+401623454+401031818+400478006+399926486+399501023
2608+399301419+399220023+398962424+398297805+397311469+396306652+395457980
2598+394722219+394088363+393676498+393490191+393279807+392844503+392335127
2588+392023740+391869360+391564771+390977229+390319371+389849022+389558895
2578+389231693+388716721+388056121+387410283+386979524+386878407+386941699
2568+386817670+386369707+385772099+385191618+384689454+384397486+384433695
2558+384662297+384798271+384722433+384550363+384434672+384401693+384333105
2548+384026488+383343501+382424551+381688940+381440806+381530729+381604989
2538+381595486+381706181+382005811+382316185+382452572+382361747+382064370
2528+381616183+381112666+380666394+380367740+380232893+380193153+380176099
2518+380158971+380115062+379999784+379814942+379592839+379357364+379172861
2508+379094732+379017017+378722119+378126125+377407379+376908746+376853831
2498+377085061+377228285+377142043+376939434+376642508+376198377+375753682
2488+375545853+375561967+375539993+375284986+374883299+374569283+374402208
2478+374213196+373904138+373588205+373377483+373217094+372977375+372630716
2468+372343256+372348815+372657460+372976736+372988230+372640295+372154132
2458+371765743+371480460+371156039+370806075+370631563+370704846+370793417
2448+370592762+370079104+369541106+369220666+369052163+368881820+368745283
2438+368713581+368665427+368441671+368083143+367768901+367623461+367629434
2428+367655276+367566781+367327587+366987540+366650047+366477675+366583975
2418+366852279+366989643+366833874+366528684+366359957+366478427+366779560
2408+366999409+366950729+366701394+366489620+366460810+366545437+366594831
2398+366561250+366488305+366391321+366263686+366151488+366088309+366018595
2388+365889682+365650977+365073163+363831482+361849494+359280490+356191518
2378+352641287+348992343+345692836+342746824+339803442+336794814+334104035
2368+332018301+330378803+328936015+327770284+327207119+327618046+329444114
2358+333003849+338032627+343864514+350278122+357404390+364563337+370178004
2348+372960922+372801473+370875039+368699307+366665034+364081644+360444006
2338+356018471+351541927+347574196+344130039+341037235+338440999+336592130
2328+335371446+334493063+333996420+334153579+335033202+336422614+338022372
2318+339503773+340602720+341364061+342101024+343033008+344160539+345438205
2308+346792834+348018777+348883751+349319731+349435422+349422726+349488572
2298+349791208+350364777+351066281+351620431+351835172+351816016+351848244
2288+352034851+352197268+352172966+352019789+351845802+351637822+351376730
2278+351170516+351150946+351294319+351418086+351378383+351260138+351255593
2268+351343901+351314903+351138475+351014221+351022334+351025489+350902174
2258+350636311+350255998+349882558+349729080+349883159+350178282+350401662
2248+350547515+350735775+350962310+351123113+351227084+351344953+351400206
2238+351285117+351139377+351240681+351639625+352127779+352539118+352890772
2228+353218011+353423099+353379640+353143150+352948768+352979493+353222218
2218+353560875+353895138+354164907+354402298+354753764+355299500+355880131
2208+356275506+356519508+356853696+357400295+358034339+358569896+358964107
2198+359318541+359728378+360173185+360586778+361017838+361630809+362482411
2188+363376383+364077512+364616036+365170937+365701009+365974685+365975661
2178+366013411+366384785+367068974+367777014+368283197+368707872+369365579
2168+370337980+371419911+372515139+373796410+375402930+377257395+379304627
2158+381728192+384763977+388369912+392203135+395892232+399241884+402208480
2148+404801035+407100720+409349885+411853794+414668378+417518682+420167279
2138+422700862+425337402+428181359+431279046+434675236+438321138+442081190
2128+445841467+449511446+452943433+455919682+458262000+459954649+461071738
2118+461557788+461210904+459913181+457793153+455206683+452586332+450159951
2108+447777892+445162912+442314449+439516505+437001515+434758323+432614932
2098+430350066+427722992+424530462+420720077+416430065+411923359+407495270
2088+403365459+399608487+396231078+393267186+390687928+388353535+386237978
2078+384525947+383265523+382164397+380985181+379868994+379020247+378386428
2068+377855605+377429391+377031047+376467845+375717848+374987045+374463922
2058+374197608+374105056+373965063+373601652+373144863+372887865+372902063
2048+373046413+373288950+373753703+374473462+375307936+376142597+377077849
2038+378376287+380251486+382721627+385603183+388584503+391368962+393834520
2028+396000411+397762361+398758876+398662230+397608320+396154076+394683493
2018+392996704+390694013+387855541+385026384+382615327+380645359+379001691
2008+377601875+376327064+375020100+373612771+372196126+370937692+369898769
1998+368995069+368228996+367776263+367623837+367360867+366629162+365552002
1988+364471648+363580005+362947314+362580410+362355152+362090416+361714046
1978+361297486+360983243+360845354+360772784+360608677+360415872+360369971
1968+360373502+360102794+359506237+358895219+358480611+358194165+357983931
1958+357919888+357954633+357879284+357577738+357176878+356942267+357049581
1948+357469109+358120694+358950172+359610847+359452749+358315828+356872777
1938+355802115+355229560+355045957+355169498+355468152+355781305+356001455
1928+356149036+356504371+357336966+358363456+359067590+359564796+360191177
1918+360421957+359461313+357765885+356638128+356627761+357149232+357309922
1908+356805279+356071057+355683119+355752270+355956869+356012724+355977115
1898+356122141+356521123+356886600+357087067+357512004+358317217+358747864
1888+358081780+356785033+355794339+355392090+355366210+355543952+355803880
1878+356012123+356134537+356303490+356934641+358665115+361602150+364425297
1868+365031883+362957756+359963665+357812461+356911015+356755058+356764336
1858+356700969+356661680+356796113+357057356+357356611+357849948+358924404
1848+361018326+364169238+367117579+367572302+365111364+362133236+360612320
1838+360437320+360571303+360728837+361819407+364595076+367984243+369674976
1828+369201772+368317905+367770854+366708493+365032822+363834975+363625981
1818+363865813+364074657+364558116+365868648+367850147+369480368+369897605
1808+369404531+369088072+369886261+372127238+375248738+377822963+378652967
1798+378202451+378327269+380534627+384458862+387439919+387010024+384447856
1788+382891369+383578450+385682589+388134663+390577459+392665371+393916405
1778+394829007+396997302+401634009+408042884+413135216+414102058+411895789
1768+409182585+407615843+408207592+411194584+414996180+417354011+418292305
1758+419330327+420684543+422137172+424823369+429798396+435726103+439525858
1748+440069641+439207259+439031732+440357890+442923363+445665340+447479614
1738+449102322+452900687+459409138+464711066+464832053+462080686+459773976
1728+458557086+458673340+460468081+463444180+467318082+473309833+482474018
1718+492557154+498039941+497000418+493503637+491251805+491473983+494437724
1708+499899815+506440044+512137798+517298118+524214941+532966735+539593355
1698+541809053+541613468+540083988+538095690+538172429+541673717+547713434
1688+555385251+565551661+578111623+587439766+588428506+585490232+584531015
1678+587622692+594184969+601819975+608480627+614936191+622174055+627899455
1668+629569829+629789265+632656848+638493807+644381173+648299398+651776046
1658+657493557+667139435+681010944+695168900+700807682+699764815+701690761
1648+707991608+713369786+713324561+710657221+709763549+711921326+717208004
1638+725237146+733146766+735299810+730880435+725990260+724264369+724687316
1628+724970457+724674545+724866861+724890976+722697290+719168431+717491746
1618+718116850+717423534+712684733+706455404+701737488+698607010+695825255
1608+692664427+689411423+686636054+684459646+682762002+681694269+681507286
1598+681971851+682358738+682069512+681083739+679680655+677984287+675994412
1588+673845875+671855248+670331064+669320951+668824910+669539787+672766123
1578+678624641+683885702+684116782+681143913+680657112+684324799+689032424
1568+691263146+691792167+693308988+697434555+705910081+721115035+741399401
1558+754707933+755446098+753859261+755935003+761598726+769594813+778564053
1548+787514887+797043572+808550564+822068015+835622803+844375911+842027696
1538+832405932+826068200+826033793+828743804+829809508+829472128+831048523
1528+835505910+841058676+846592660+853344399+861492237+867728327+869766507
1518+869521529+868725744+867683103+867715030+870743265+877433478+886942255
1508+896171873+898303883+890883017+882528440+879370692+881252164+885978344
1498+890418828+891426537+889116634+887156508+888170076+891591133+894778480
1488+895470969+893766789+891415268+890110896+890461874+892091531+894825432
1478+899128440+905058852+911454806+915840976+915289643+909984861+904233093
1468+901508733+902099731+904211157+905956355+907697571+911547057+918321784
1458+924936573+925603070+920482792+915320218+912302426+910737149+909927692
1448+909252180+908204054+907147140+906765211+907186504+908571860+911463295
1438+915401052+917940382+917263517+915113103+913856284+913721136+913778831
1428+913610479+913497493+913536107+913659835+914410396+916523549+919342114
1418+920601187+919156408+916208631+913092727+910191451+907510287+905507716
1408+905055246+906032455+906672358+905787326+904906877+906249187+909701570
1398+912904918+913642707+911249417+906528872+901617362+898492819+896894713
1388+894546047+890224633+886167956+885354967+888048902+892567966+897513732
1378+902301964+906612259+910162754+912669255+914139500+915215045+916487941
1368+917887870+919402814+921578320+924447443+926820599+927608421+927210641
1358+926812411+927215224+928572258+930548085+932640129+934458723+935677829
1348+936046536+935865263+936178228+938002907+941331411+945025166+947612500
1338+948216194+947079197+945510240+945190138+946905662+949718141+951844366
1328+952434162+952053511+951560774+951164572+950699256+950371792+950817501
1318+952241921+953934382+955241684+956533360+958225746+959452590+958967291
1308+956874121+954434405+952756067+952273773+952730825+953386730+953833115
1298+954334265+954845857+954470690+952772444+950845146+949961617+949622359
1288+948144075+945197425+942254906+940215223+938282517+935651987+932789700
1278+930459514+928593743+926578100+924057476+921222459+918579233+916527155
1268+915029941+913634594+911877151+909667163+907174410+904472812+901550878
1258+898505139+895490201+892688614+890395915+888806374+887736162+886843092
1248+886044903+885488387+885319809+885633150+886317226+886936020+887091150
1238+886873217+886766766+887059148+887459632+887621073+887932085+889186199
1228+891459216+893811713+895266558+895903531+896722379+898381936+900455800
1218+902175155+903467282+904832279+906649671+908952737+911493044+913869731
1208+915868020+917674068+919665221+922041758+924470431+926079354+926384056
1198+926300593+927527889+930714334+934580047+937081515+937568316+937531731
1188+938987778+942437231+946583606+949807914+951702383+953042363+954398421
1178+955428141+955947170+956767896+958601064+961039953+963544125+966388457
1168+969836483+973628275+977788248+982280417+985594423+985739186+983043599
1158+980156671+979011036+979115232+979242717+979789617+982260359+986823746
1148+991616711+994701890+995680300+995190043+993856072+992194788+991136145
1138+992179312+996378124+1002735088+1008526747+1012040205+1013801254+1014537767
1128+1013992219+1012603032+1012139669+1013676774+1016419915+1019198739
1120+1021846698+1024309928+1026029884+1027140512+1028756422+1031401902
1111+1034034235+1034804853+1032710631+1028888565+1026179079+1026703142
1103+1029989352+1033903895+1037086509+1039845276+1042755040+1045593062
1094+1047969524+1050272515+1052577083+1052736796+1048828713+1043514691
1085+1041923497+1046021943+1053117072+1058758859+1060557470+1059755225
1077+1058978596+1058921051+1058246065+1056218403+1053990535+1053435897
1068+1055541914+1059651929+1064026831+1067192167+1068294606+1067116667
1060+1064619857+1062744245+1063169069+1065569571+1067214779+1065940606
1051+1063878537+1065179303+1069935457+1073741823+1073634847+1071191224
1043+1068957497+1067500775+1066400063+1065511199+1064899317+1064566219
1034+1064610467+1065345402+1066930361+1068949835+1070395139+1070376508
1025+1069366170+1069142227+1070609842+1072244759+1071616575+1068373035
1017+1064702268+1062824101+1063295728+1065309192+1067493262+1068587213
1008+1067888713+1065627266+1063033020+1061741194+1062578146+1064369545
1000+1064525878+1061890464+1058251549+1056011512+1055544168+1055463109
991+1054344067+1051747493+1048624828+1046389824+1045218946+1044007502
983+1041856561+1038752602+1035276705+1032302409+1030645181+1030454292
974+1030595750+1028936569+1024149614+1017263704+1010556663+1005336095
965+1001375200+997814037+994283225+991356558+989501454+988048112+986218174
955+984324532+982712829+980523801+976917414+972514191+968542929+965551355
945+963687536+963011874+962823689+962147276+961288763+961501062+963039219
935+964843389+965981362+966188403+965405690+964011770+962869740+962183035
925+961058133+958839356+956246162+954810098+955394936+957389695+959302493
915+959839477+958359391+955080093+951215281+948181261+946478809+945767839
905+945648542+946008910+947059365+948971938+950966171+951385210+949696355
895+947418381+946025663+945036435+943155939+940736281+939764782+941194010
885+943557100+944857565+944750890+943982450+942827348+941238257+939620995
875+938430435+937479145+936273560+934910441+934104064+934093697+934031044
865+933001023+931138332+929261893+928053679+927747700+928196790+929312752
855+931211427+933691410+936000110+937511898+938188312+938035210+936906702
845+935168416+933743320+933238264+933700725+935171571+937507466+939444755
835+939250260+937171213+935571529+935932649+937548484+939367077+940894341
825+941041809+938591576+934170473+930141892+928700118+930508270+934219303
815+937291260+938707867+940486570+944694923+949914289+952929077+953084958
805+952025790+950099920+946396924+941755033+938825060+939275051+942589357
795+947067102+950380582+950212380+946698621+943065791+942086328+943389874
785+945129889+946594499+947861610+948587906+948684289+948329781+947039382
776+944781164+942910660+942208329+941441392+939776276+938840761+940123497
766+942553973+944202262+944574875+944235316+943421652+942124566+940901253
756+940754686+941976122+943966749+946275900+949176049+952538885+954645728
746+954073210+952194593+951575348+952563901+953517746+953789694+954090714
736+954088686+952327261+948871272+945794883+944594182+944556995+944020162
726+942577863+941395341+941491875+942568998+943628317+943842269+942443692
716+939403963+936930967+938013048+942650958+946875913+946735882+942643295
706+938488957+937355491+938997319+940829059+940806146+938969598+935484611
696+929069576+919918463+911742905+908176785+908997135+911165204+912348402
686+912410980+911941757+910974465+908958597+905416516+901456748+898975714
676+898283674+897382566+893065209+883409565+871080795+864813904+870263901
666+879120229+882564048+881296487+878853465+876157653+872651932+868940372
656+866634827+866814297+869060495+872284352+875715625+878165332+877604985
646+873741150+869462932+867315072+866471884+865022072+862902683+860341342
636+856452040+852193730+850350121+850380170+848163797+842854657+838972116
626+839865261+843567205+846034642+845944118+844881944+844261348+843675609
616+842055642+839373427+836350526+832925863+828624207+824567905+823662815
606+827424257+833729311+838710911+839509400+834887417
##END=
