##TITLE=<SNM>
##JCAMP-DX=4.24
##DATA TYPE=INFRARED SPECTRUM
##DATE=2/5/2025
##SAMPLING PROCEDURE=Instrument type and / or accessory
##ORIGIN=Admin
##XUNITS=1/CM
##YUNITS=ABSORBANCE
##RESOLUTION=4
##FIRSTX=4497.3318
##LASTX=599.83466
##DELTAX=-1.4281778
##MAXY=1.8397009
##MINY=0.35142815
##XFACTOR=1
##YFACTOR=1.713355e-09
##NPOINTS=2730
##FIRSTY=0.37510267
##XYDATA=(X++(Y..Y))
4497+218928748+217645079+216611954+215806432+215009329+214236960+213606736
4487+213200791+213134955+213531749+214428730+215656321+216623522+216516148
4477+215253995+214033570+214262355+216043010+218149491+219356453+219413436
4467+218825253+218159075+217703158+217576929+217869655+218440826+218751276
4457+218261927+216978466+215426892+214257572+213999043+214847563+216424046
4447+217894876+218476101+217792703+215979173+213743523+212129139+211914217
4437+213137685+214971357+216097906+215720853+214304884+213060403+212910257
4427+213968325+215483632+216338849+216115317+215441642+215034794+214960208
4417+214950276+214750765+214156007+213361444+213060490+213494039+213872118
4407+213561076+213177622+213537472+214278984+214544279+214315964+214097111
4397+213962393+213743975+213453650+213075536+212621184+212420891+212724175
4387+213235562+213531106+213621503+213842861+214369329+214808670+214332071
4377+212598119+210410286+208944587+208566890+208917034+209735324+210906262
4367+211879203+211831560+210650933+209226998+208466700+208292220+207965088
4357+207313817+207095469+207903565+209243226+210162054+210406442+210367861
4347+210217993+209715634+208736379+207585218+206792845+206703266+207154417
4337+207555509+207470364+207124412+207023631+207105644+206809857+206127329
4327+205905345+206667399+207720631+207976046+207306320+206583716+206496554
4317+206758892+206685350+206212316+205790613+205542016+205327007+205394027
4307+206063997+207011316+207624981+207828631+208028142+208525284+209267491
4297+209919023+210135319+209958577+209734367+209539796+209117467+208440365
4287+207831675+207511119+207425487+207408337+207218967+206696604+206040601
4277+205631387+205555862+205627439+205767653+206099463+206770337+207728754
4267+208582667+208871879+208542104+207871699+207074961+206378587+206081443
4257+206109047+206116631+206221518+206804673+207665422+208325129+208893413
4247+209695996+210403589+210345927+209439136+208315771+207666431+207655855
4237+207887006+207930404+207840894+207900834+208011304+207845991+207561057
4227+207737382+208469883+209066919+208992368+208663167+208848519+209586413
4217+210172456+210083972+209427117+208540086+207724388+207359529+207622824
4207+208162094+208615716+209123503+209787732+210213454+210159723+209964404
4197+209902447+209799821+209489214+209068328+208656105+208257849+207863715
4187+207572016+207556483+207753628+207722336+207200633+206644056+206768268
4177+207682173+208778942+209413358+209512244+209480621+209619531+209869067
4167+210115664+210374384+210585097+210599899+210420861+210190980+210040173
4157+210020761+210006029+209788880+209550233+209859587+210818543+211676404
4147+211755791+211314241+211062757+211210172+211322695+210937780+210120517
4137+209383736+209116806+209201915+209255263+209167301+209193531+209470881
4127+209683072+209438510+208799415+208093074+207417677+206803247+206619548
4117+207209383+208274147+209135887+209420490+209117936+208310292+207295014
4107+206663555+206799629+207495725+208277696+208869218+209174728+209117102
4097+208740745+208236106+207755906+207333490+206953846+206608207+206335797
4087+206239086+206358044+206572149+206768250+207020361+207444308+207968619
4077+208365118+208389609+207921064+207192824+206718886+206665816+206581907
4067+206101985+205475153+205111111+205175052+205711487+206543448+207138536
4057+207139163+206775417+206420333+206194818+206144758+206276901+206437275
4047+206568531+206862648+207325175+207564414+207380367+207185361+207423017
4037+207852618+207897216+207566397+207439385+207761246+208148161+208200170
4027+207980447+207934822+208496096+209579420+210537454+210846583+210588367
4017+210089990+209495685+208872123+208352960+208048789+208010417+208192256
4007+208355986+208229983+207869003+207715865+208192917+209158169+209902742
3997+209921545+209422908+208828376+208285505+208003947+208406343+209528734
3987+210736860+211277696+210896260+209954125+209098959+208790944+209137557
3977+210015439+211081525+211865061+212151960+212045195+211599227+210869021
3967+210291953+210428410+211283071+212260847+212812328+212938331+213000185
3957+213121178+213053585+212767677+212787820+213547004+214629528+215158605
3947+215018530+215055597+215769017+216545770+216615955+216097767+215536858
3937+215258552+215659313+217158948+219265151+220413651+219707745+218226286
3927+217562665+217944832+218474170+218741031+219357027+220737373+222136539
3917+222123233+220053853+216960794+214616204+213964446+214724309+216462278
3907+219616234+224790449+231103145+236062994+237731961+235882008+231128888
3897+225263500+221417518+221764322+225226102+227781770+226905575+225232260
3887+226072623+228592510+229903663+230157947+231199351+231744536+229636471
3878+226752924+226375941+228956274+232927998+236792556+238896707+238145246
3868+236530061+236697254+237821315+236814821+232915126+228803901+227477477
3858+230538635+238298053+248423073+253176228+247151683+237010696+229678409
3848+226814030+227779439+231218868+235846924+240976175+245881720+248772642
3838+247980549+244692919+241693179+239743888+237874854+235901420+234716462
3828+234520970+235054709+237485486+243184552+249697575+251631142+249139102
3818+246992405+245503050+241896812+237121584+234698007+236323332+241314613
3808+246815490+249829406+251378266+254307299+257446574+257123304+254186879
3798+251957769+250397133+248206742+246405127+246829127+249549290+253333732
3788+257316588+261371021+265517051+270071391+275936640+283510219+291645402
3778+299059703+306316743+314885197+325582344+338303299+351539467+362717841
3768+370612063+375449406+377223642+377111624+377684517+379540262+380592746
3758+380150030+380954683+385954348+395582834+406858198+414279125+416633352
3748+419806493+428205493+439602337+447416407+450848269+455773417+465921432
3738+480853529+497176425+510378849+518056967+521734608+524889869+530484239
3728+539968389+552301385+563954618+571958145+576129466+577547575+577183968
3718+575961508+574911077+575330867+577718977+579573922+577013958+570575972
3708+564519788+561848571+562935565+565947046+567749356+566773024+564942187
3698+565086210+567903955+571997282+576285422+581309613+586847034+589166994
3688+585259437+578562696+574249195+574173566+577492262+582477559+588176433
3678+594310021+598519123+597299446+592910141+590272426+588823634+584415891
3668+577040745+570128595+565410402+562955255+562134078+562258899+562986078
3658+563770205+564132490+565179652+568614784+574207867+579614415+581790178
3648+579457625+573889346+567495819+562311255+558751859+556570044+556569905
3638+559513270+563927483+567279297+569460765+572504947+575997306+575335876
3628+568793352+561977392+559094384+560459406+565884705+574132376+580565422
3618+581040908+578145724+576830902+578103735+580088475+581613105+582450598
3608+582187668+581129131+580533591+580960269+581936671+583266278+585796498
3598+590210433+595174092+598011840+598215491+598353600+600265772+602864803
3588+604078218+603666603+603051477+603081186+603535521+603681423+602685156
3578+600268416+597208162+595037235+595299817+598973179+605953514+614088331
3568+619009270+617636595+612007158+606243926+601864988+598658415+597047370
3558+597402698+598594196+598728687+597023297+594679125+593754174+594928069
3548+596785137+597648720+597228339+595873267+593767672+591601477+590395785
3538+589882310+588410488+585358375+582576879+582432195+585171353+588862179
3528+591355802+591836576+590660315+588551659+586120377+583543854+580696122
3518+577606263+574527014+571830437+570151625+570148529+571581527+572940496
3508+572684176+570761081+568325694+566380056+565117589+564152493+563090964
3498+561992977+561163834+560477496+559589282+559087496+560202878+562745169
3488+564619213+564303788+562483979+560383707+558272616+556345938+555431389
3478+555763582+556137800+555185366+552866555+550331917+548678431+548208928
3468+548738406+549917449+550810847+549949872+547019170+543760483+541867584
3458+541088501+540536203+540370124+540787444+540881859+539989053+538726691
3448+537569738+536098612+534533349+534014169+534633330+534800836+533191009
3438+530318925+527701769+526349236+526355463+527243851+528227837+528443907
3428+527620504+526403715+525366711+524039887+521699646+518711369+516236045
3418+514940356+514585863+514491378+513917859+512496098+510921337+510601390
3408+511884590+513338356+513558670+513011938+513055876+513709895+513841603
3398+513227243+512736311+512499263+511527523+509384566+506981949+505458815
3388+505178317+505795565+506593330+506829333+506190481+504901994+503507332
3378+502728562+503043361+503998090+504450720+503993359+503532867+503858798
3368+504315324+503694563+502068351+500799588+500851109+501821771+502612822
3358+502686990+502647575+503425406+504816136+505426462+504477090+502853174
3348+501792132+501441953+501221883+500869965+500540659+500274181+499951798
3338+499664099+499612473+499562343+498936537+497606895+496091692+494952968
3328+494418446+494492685+495021501+495593698+495648107+494898003+493674812
3318+492683904+492246302+491918840+491099159+489952886+489373348+489800826
3308+490505254+490515203+489834571+488991547+488016467+486787676+485747959
3298+485408286+485692924+486314903+487139489+487897908+488234067+488291050
3288+488660919+489458614+490009034+489764090+489164549+489205112+490301151
3278+491793950+492543950+491985807+490615428+489428070+488841888+488307540
3268+487204369+486086901+486379575+488515296+491141775+492445082+491723991
3258+489673640+487648685+486542558+486092745+485564242+484847882+484137054
3248+483143153+481674984+480443549+480348646+481315795+482382194+482600978
3238+481666113+480065783+478643778+477702721+476841572+475900863+475363662
3228+475428195+475494118+475009901+474047657+472779521+471219337+469632261
3218+468437076+467661367+467061757+466623911+466429062+466231604+465689394
3208+464957623+464572378+464617011+464396836+463196815+461119225+458958526
3198+457502359+457068584+457371034+457651705+457224992+456100601+454968800
3188+454492583+454658349+454833265+454414588+453337404+451907537+450405484
3178+449056847+448071122+447335594+446343676+444908208+443677017+443336057
3168+443587576+443547848+442866937+441797128+440466060+438813687+437096156
3158+435833690+435184854+434715038+433930145+432843291+431765759+430755821
3148+429737047+428938412+428596444+428374703+427641749+426219675+424512754
3138+423101881+422385034+422333513+422486268+422357378+421823830+421083988
3128+420416019+419946829+419514655+418893649+418186439+417718467+417512242
3118+417106611+416019165+414425097+413244522+413226920+413952985+414173717
3108+413198254+411518746+410149063+409764479+410280423+410945610+411047470
3098+410523315+409655278+408540697+407236207+406035664+405261695+405011497
3088+405217374+405707263+406155579+406252917+405989430+405520241+404768954
3078+403522142+401986832+400792899+400243175+399994021+399625926+399080203
3068+398376471+397424629+396378442+395711203+395628894+395727728+395483584
3058+394843514+394142322+393632744+393261866+392784884+391978979+390787516
3048+389358553+388004246+387046838+386571561+386363527+386148327+385797592
3038+385294345+384677549+384004987+383239159+382335116+381506390+381050177
3028+380831706+380388782+379642365+379019551+378745524+378479637+377792917
3018+376669395+375450414+374537605+374144220+374082366+373837735+373100119
3008+372163515+371579872+371509252+371556773+371199741+370326242+369332516
2998+368655501+368274605+367783603+366933134+365961533+365281492+364918546
2988+364472039+363662725+362654735+361752188+361049222+360439105+359748349
2978+358914196+358198080+358026783+358426987+358811014+358539944+357570047
2968+356353050+355274892+354444078+353861479+353503891+353309424+353279020
2958+353468720+353692374+353489141+352662919+351616141+350901590+350618031
2948+350423634+350020194+349449875+348944158+348617010+348342461+347885378
2938+347108625+346026676+344738605+343492385+342732992+342726000+343124500
2928+343245737+342767850+341892960+340974411+340280420+339910864+339706727
2918+339417636+339019902+338662418+338332903+337834944+337096633+336273299
2908+335489833+334701183+333951739+333530140+333585871+333770144+333581731
2898+332952690+332209578+331620578+331276800+331227192+331393306+331460065
2888+331138482+330483906+329790367+329286981+329047429+329015737+328997717
2878+328756495+328206457+327478722+326780069+326220848+325841586+325735134
2868+325918538+326093175+325844856+325110337+324167436+323238172+322408159
2858+321830534+321680145+321884491+322079201+321908982+321343151+320645124
2848+320038452+319514019+318995221+318569517+318456316+318712497+319005171
2838+318821141+317998050+316952107+316285042+316206942+316388745+316361193
2828+315972817+315406916+314887632+314488889+314103296+313518853+312656556
2818+311737972+311098633+310864161+310863152+310805473+310561468+310284414
2808+310139765+309948916+309360055+308388106+307493143+307019014+306797621
2798+306480770+306073260+305868044+305935986+305946353+305522701+304661865
2788+303773860+303258124+303051621+302788796+302371685+302023663+301787068
2778+301384533+300628445+299675629+298836014+298287125+297986276+297788261
2768+297589133+297315941+296855275+296138602+295290116+294550622+293996619
2758+293446477+292765810+292144283+291836964+291733225+291466573+290892236
2748+290202715+289618064+289167034+288745279+288266348+287765676+287359766
2738+287050325+286648816+286032142+285361963+284847271+284423759+283930618
2728+283442138+283105040+282807966+282337889+281737566+281234719+280933348
2718+280784889+280721366+280604860+280183435+279354152+278415756+277834810
2708+277766224+277930338+277917519+277549389+277002344+276584641+276367214
2698+276123644+275649133+274979093+274276022+273670637+273237715+272997293
2688+272902460+272874682+272852052+272791155+272660751+272460545+272192606
2678+271796385+271224918+270605026+270138585+269833387+269535687+269192953
2668+268878363+268634723+268456833+268344919+268310479+268352851+268352781
2658+268051324+267374518+266685345+266421633+266586912+266822602+266840049
2648+266598566+266184516+265683391+265157549+264665991+264252915+263933420
2638+263699747+263501106+263254683+262961505+262755976+262748827+262884136
2628+263002260+262978865+262776327+262415521+261960612+261550545+261338702
2618+261292538+261186451+260918651+260661201+260575570+260590007+260557741
2608+260442609+260284966+260117008+259934892+259703410+259415642+259156226
2598+259048330+259120081+259267496+259386785+259490019+259591775+259557943
2588+259276141+258921649+258800290+258970143+259230464+259386837+259342552
2578+259072699+258686950+258399599+258330092+258407704+258473245+258410939
2568+258236650+258100941+258144879+258352286+258592204+258756126+258796167
2558+258712084+258584202+258550179+258655431+258750369+258619095+258215064
2548+257703851+257269293+256947258+256663751+256366799+256058122+255723059
2538+255337970+254986905+254841368+254919572+254991045+254858553+254608982
2528+254426727+254298636+254101996+253880899+253797163+253840544+253805600
2518+253561856+253188699+252858854+252705838+252762160+252943581+253124306
2508+253234342+253263859+253234602+253185777+253119105+252984840+252792948
2498+252664945+252687314+252768457+252728903+252526557+252300120+252143173
2488+251961909+251668974+251362142+251156769+251017807+250897753+250846910
2478+250877576+250890013+250786796+250535868+250161912+249785329+249550717
2468+249415147+249181596+248829817+248573080+248490405+248378022+248080547
2458+247715740+247467456+247364431+247341279+247370849+247457646+247546808
2448+247510176+247280243+246962087+246719230+246579538+246448108+246268131
2438+246074987+245914369+245787983+245679496+245562608+245388197+245155046
2428+244972634+244919982+244903109+244830645+244823218+245034818+245381796
2418+245636550+245689307+245598196+245468558+245363915+245299922+245270647
2408+245262942+245279536+245363480+245543248+245760936+245950532+246147642
2398+246409876+246718326+247123157+247949831+249754263+253114479+258535603
2388+266513404+277575185+292187281+310597822+332715295+358070337+385907175
2378+415416736+445929070+476745313+506693659+534125909+557725397+577382331
2368+594014391+608111012+618576226+623650929+622911818+617558878+608559502
2358+595499223+577510212+554406422+527380430+500339896+479320271+468950585
2348+470731118+483300848+501815057+518730050+529089960+533478291+534879979
2338+535725612+537096479+539010807+540917621+541794042+540665824+537656987
2328+533750822+529328747+523744395+516278904+506981636+496607115+486051208
2318+475889591+466274011+457059679+447906817+438355978+428032561+416876835
2308+405134022+393170616+381373255+370101336+359582583+349862012+340856966
2298+332411245+324362389+316672096+309459897+302838195+296771887+291158784
2288+285978064+281290676+277149185+273576987+270584466+268125545+266062253
2278+264235451+262566189+261065058+259754584+258596344+257504253+256414406
2268+255304400+254193715+253201728+252510085+252138424+251862258+251470159
2258+250960546+250401342+249788947+249138772+248551824+248106847+247762096
2248+247400663+246965462+246549446+246290187+246148999+245915482+245487030
2238+244998412+244609653+244327851+244105101+243948067+243855617+243791537
2228+243770751+243839597+243944432+243959895+243869759+243790876+243796129
2218+243831248+243829004+243808009+243816150+243837423+243820777+243788598
2208+243837771+243992666+244145786+244226495+244327920+244542459+244778950
2198+244887837+244884132+244912398+245056108+245275918+245492544+245674469
2188+245849019+246035537+246182308+246206712+246111740+246021952+246063159
2178+246217723+246343291+246323166+246150825+245900176+245675913+245555563
2168+245533733+245544848+245535455+245478211+245355200+245166543+244926609
2158+244651033+244374119+244155127+244035125+243992700+243971236+243967218
2148+244047074+244254778+244600730+245179502+246147903+247536511+249238318
2138+251198393+253473841+256104321+259025439+262133736+265423297+269018316
2128+273035108+277491519+282386384+287730348+293450652+299361108+305217469
2118+310779521+315876975+320350607+323910211+326242382+327257816+327050757
2108+325732908+323455250+320426515+316841480+312875931+308662481+304220333
2098+299523326+294627887+289654052+284700986+279838057+275158148+270815756
2088+266969983+263708740+261067997+259014238+257355985+255875693+254588683
2078+253638946+252974299+252381420+251784541+251293157+251009023+250930332
2068+251003457+251141323+251185522+250993490+250623309+250284993+250087134
2058+249989345+249954208+249971568+250014514+250083951+250202823+250355648
2048+250522457+250720594+250976148+251287660+251571689+251683376+251601294
2038+251476926+251417751+251418290+251512670+251754153+252079302+252374497
2028+252603909+252800045+253016097+253292316+253652810+254160231+254849230
2018+255523722+255841339+255724520+255473958+255396850+255520400+255686358
2008+255761222+255715249+255598761+255515478+255589455+255865117+256198997
1998+256371321+256437488+256795842+257632187+258460147+258620000+258115761
1988+257489485+257102014+256961747+256979089+257078305+257219789+257417126
1978+257647789+257831419+257954222+258087026+258329518+258844645+259724162
1968+260646955+260983758+260528814+259835762+259569215+259832475+260314240
1958+260800719+261280902+261737515+262101783+262363982+262613309+262984065
1948+263615751+264682794+266269434+267918728+268591290+267758111+266217495
1938+265126831+264828817+265010847+265357634+265701185+265914229+265953922
1928+266026734+266623753+268013422+269649549+270759347+271491900+272361329
1918+272839145+272006958+270367613+269409092+269810097+270998898+271934651
1908+272012715+271445702+270869851+270660861+270763051+271034870+271527106
1898+272368808+273391861+274118466+274506025+275251503+276631484+277645874
1888+277294548+276073671+275109323+274772416+274818250+275003862+275189684
1878+275330890+275512345+275898930+276916678+279331783+283368318+287424038
1868+288710873+286505019+283110919+280825122+280078618+280188131+280521264
1858+280810841+281004699+281169004+281433603+282004600+283126504+284966525
1848+287724939+291476383+295075542+296007311+293525934+290185008+288370922
1838+288204947+288624198+289168060+290634716+293862928+297907202+300318655
1828+300307071+299511881+298776144+297364436+295329775+293952403+293850821
1818+294388335+294835434+295373712+296686308+298749600+300450781+300779982
1808+300092010+299651869+300496528+302904188+306145446+308666029+309391086
1798+309041777+309529231+312218468+316581090+319683577+318715141+315061504
1788+312379642+312234192+313720207+315565029+317427279+319070851+319924242
1778+320329421+321935316+326142748+332322953+337224793+337846285+335143515
1768+331755939+329237199+328729743+330759220+333806150+335419143+335586683
1758+336013083+336987293+338239184+340957295+346307069+352795497+356817821
1748+356900234+355115979+353973776+354552409+356637235+359034355+360486104
1738+361812163+365640924+372430028+377369370+375676260+370314414+365530228
1728+362329882+360937690+361435615+363133456+365884651+371153716+379973167
1718+389602523+393661548+389972636+383310822+378098567+375974987+377370066
1708+381881234+387567027+391956158+395418634+400783297+408375070+413941505
1698+414767970+412387340+407386736+401201139+397524193+397966178+401318306
1688+406695980+415149249+425951109+432064242+428683623+422090830+418621640
1678+419711104+424084510+428894997+432186871+435228096+439165675+441430912
1668+439515540+436551302+436855282+440465956+443930588+444922576+445348975
1658+448611175+456948217+471005180+486504708+492175543+488661024+487904901
1648+492611996+496976045+495427584+491089940+489445325+492143398+499066993
1638+509852329+522093414+529642606+529740396+528360520+531080301+538630919
1628+548847641+559634751+570806827+582196087+592031460+600009591+609067272
1618+621337371+633957091+641667840+645195718+648852382+654057541+659729350
1608+664585582+668117565+670584053+672670444+674880821+677258042+679763562
1598+682699344+686566059+691448383+696774745+702022276+707255474+712575156
1588+717621472+721908778+725207401+727607652+729632537+732424574+737478195
1578+745313695+753350270+757204323+758040076+761434715+769615871+779993210
1568+788755956+795929504+804003303+814432059+828341033+847473186+869406420
1558+881455961+879637927+875419154+874038895+874471661+874895382+874171717
1548+872618838+871925995+873188670+876238139+880461852+882607592+876566889
1538+864730182+856042440+852796834+851333361+847539075+841918544+837939810
1528+837162223+838778695+841592021+844959317+847551251+847640309+846122427
1518+845071404+843950387+841379326+838413140+837775540+841595500+850375501
1508+860734054+862523284+850729228+837038864+830156424+829715030+832621798
1498+835392544+835127249+831972928+829460658+830402516+834069964+836614517
1488+834930695+830411352+826464624+824739891+824640257+824783168+824928165
1478+826412093+830552453+836751095+841484247+840228600+833472580+826988256
1468+824482110+825197496+825855899+824356037+823126968+826241492+834610713
1458+843636041+844740777+837093134+828829808+824170477+822646681+822297059
1448+820887578+817639050+814003607+811562027+810620796+811294784+814037699
1438+818046073+820213103+818540344+815572071+814224095+814213519+813703175
1428+812441336+811951099+812771824+813833075+814739031+816360164+818169641
1418+817480555+813530417+808748214+805139349+803003210+801782421+801169660
1408+801632135+803262731+804571396+804143709+803080579+803523156+805753083
1398+808111032+808895368+807468701+804449289+801755216+801238958+802977328
1388+805135870+805630420+804590668+804144474+805701597+808989227+813265330
1378+818349218+824101179+829137545+831259768+830342332+829026710+829380089
1368+831274588+834331502+839002383+844530795+847851821+846964234+843864947
1358+841528776+840414717+839235951+837558948+836365294+836293560+836786232
1348+837219763+837728506+838710927+840515255+843421606+846834195+848945495
1338+848618833+847100812+846577527+847966762+850598216+853130175+854701352
1328+855640983+856919800+859009878+861707291+864797602+868316574+872172296
1318+875896240+878955868+881420199+884134519+887743036+891793155+895439660
1308+898679839+902161657+906034635+909709597+912792811+915514645+917817071
1298+918890776+918418491+917373104+916728825+916427141+916209575+916262314
1288+916453719+915917354+913971786+911127428+908735665+907458657+906596256
1278+905452557+904491358+904372799+904924402+905589971+906016336+905854431
1268+904948197+904012115+904324513+906558198+910113071+913614093+916204635
1258+918218945+920302554+922408426+924240098+925982851+927756565+928981669
1248+929096957+928508966+928239983+928615835+928749700+927622074+925448990
1238+923481783+922568939+922443423+922222240+921230565+919570539+917968122
1228+916651317+914730587+911693920+909042080+908968885+911629005+914565204
1218+915038115+912983868+911115252+911886994+914863478+917547184+918553191
1208+918817373+919719433+921410560+923168619+924588955+925974849+927482712
1198+928633508+929024597+928950359+929219412+930726091+933760741+937336279
1188+939990345+941577177+943208955+945472279+947882619+949857618+951197175
1178+951838879+952116003+953145526+955922673+959813393+962951225+964425412
1168+964919684+965264574+965924160+967652163+970964979+975089684+978444595
1158+979863399+979182037+977427247+976350063+977030104+979099171+981475070
1148+983266735+984141243+984553205+985451995+987122179+988517536+988596158
1138+988139110+988999771+991703933+994923865+997197417+998312381+999093168
1128+1000420549+1002378850+1004651915+1007612188+1011492053+1014460327
1120+1013984841+1010693106+1008203867+1009147116+1013281909+1018722098
1111+1023594264+1026769458+1027839197+1026898244+1025147420+1024541757
1103+1025910327+1028764913+1031954162+1033953373+1034210528+1033803923
1094+1034129402+1035161152+1035764590+1035079191+1032863805+1029752412
1085+1027817907+1029050177+1032885513+1036342144+1036450962+1033223655
1077+1030542315+1032622862+1038941593+1044225234+1045259350+1044604565
1068+1045652875+1048508783+1051689961+1054646406+1057160624+1058245461
1060+1056956904+1053085248+1047811069+1044215494+1045512609+1052511172
1051+1062495960+1070652417+1073741823+1072415973+1069396073+1066327192
1043+1063257615+1060455977+1059333568+1060718558+1063391480+1066273618
1034+1069493132+1072119577+1072315087+1069431348+1064819190+1060545382
1025+1057976617+1057810886+1059680198+1061629176+1061958134+1060639867
1017+1058107769+1054386747+1049922299+1046310443+1044973112+1045716607
1008+1047401751+1049060316+1049941363+1050033831+1050454003+1050972835
1000+1048639587+1042437257+1036874405+1036586149+1040124672+1042796411
991+1043595080+1044746293+1046176647+1045466340+1042672495+1040858774
983+1041419213+1042145801+1040622562+1037875263+1036770457+1037529955
974+1037301883+1034659366+1031634736+1030115045+1029349564+1027929438
965+1025826418+1023459911+1020827762+1018394462+1016616712+1014488992
957+1010950469+1007207809+1004996110+1003403295+1000164090+995272582+990633706
947+987134216+984301060+981938241+980357462+979346863+978090103+975987361
937+973613479+972360963+972279836+971989076+970927895+969740084+968886937
927+968761282+970062363+972090240+972282480+969262442+965009020+962709864
917+963711487+966750033+969027621+968792383+967199915+966644486+967754301
907+968752028+967667261+964848020+962591653+962337281+963385034+964365298
897+964473350+963206431+960580126+957884871+956730109+957436659+959441576
887+962278837+964955516+965516929+962689756+957471377+952195181+948858151
877+948618391+951164752+954442781+955853445+954189453+950593459+947554218
867+946983621+948702926+950300542+949193997+945318237+941383197+940596356
857+944284817+950923391+956675074+957592649+952689591+945119665+939393657
847+937473205+938071424+939077849+939560640+939713709+940199631+941397808
837+942757055+943599001+944208561+944749379+944009572+941152134+938033783
827+937464856+939802279+943074603+945600439+946953703+947305203+947537937
817+948995704+951851960+954257290+954452382+953735327+954962587+958514538
807+961717633+961972909+959572728+956809287+955075927+953548305+950657192
797+946726327+944309586+945180545+948083278+950362465+951581377+953491391
787+956648287+959599375+961208611+962022308+962767055+963010434+962298179
777+961119205+959636251+957017599+953227001+949816429+948176162+948933781
767+952282430+957203995+961707962+964147593+963598425+960811677+959017994
757+960684352+963555775+963462682+960967250+960320884+962745556+965626372
747+967379840+969174566+971654204+973358412+973728002+974479568+976463264
737+978068743+977056195+972412032+965422861+959478451+957398948+958859499
727+961153506+961776982+959755575+956011175+953114008+953215381+955928379
717+959064471+961271508+963424484+967019434+970726610+970288139+964722434
707+958847114+956743120+957080844+956199797+953337210+950298525+948231545
697+947922625+950481163+954745578+956738389+954421908+950173774+946717282
687+944830992+945074162+946855113+946671431+942845487+939090303+938407479
677+938266169+935301931+931058528+929085755+928931573+925803900+916698629
667+908203196+907786919+912509774+915666878+913387343+907543262+902869598
657+901179932+900936763+901302526+903733948+908340192+911492217+910779406
647+908495487+906621860+902940149+895466586+887740600+884608404+885243499
637+883793315+877738627+872412474+874051210+881374209+886829496+885591173
627+879391835+871663135+864332274+859402986+859719281+866296350+875285289
617+879709312+877060882+872135281+869615359+869454707+870678210+873927155
607+878247857+880370707+879075609+875315346+868299597+856371467
##END=
